idDB4A	idDB4A	idDB4A	idDB4A	idDB4A	idDB4A	idDB4A	idDB4A	
EMG_CH2_24BIT	EMG_CH2_24BIT	ECG_EMG_Status1	ECG_EMG_Status1	Timestamp	Timestamp	EMG_CH1_24BIT	EMG_CH1_24BIT	
CAL	UNCAL	UNCAL	CAL	UNCAL	CAL	CAL	UNCAL	
mV	no_units	no_units	no_units	Ticks	ms	mV	no_units	
57.16252114326014	792585.0	128.0	128.0	4424651.0	135029.63256835938	0.649815875269875	9010.0	
57.11600269269976	791940.0	128.0	128.0	4424683.0	135030.60913085938	0.6447673612555697	8940.0	
57.12646032887225	792085.0	128.0	128.0	4424715.0	135031.58569335938	0.6512583078453908	9030.0	
57.13511492432534	792205.0	128.0	128.0	4424747.0	135032.56225585938	0.6602735114423647	9155.0	
57.16035749439687	792555.0	128.0	128.0	4424779.0	135033.53881835938	0.6710917557587333	9305.0	
57.15026046636826	792415.0	128.0	128.0	4424811.0	135034.51538085938	0.6678462824638227	9260.0	
57.15026046636826	792415.0	128.0	128.0	4424843.0	135035.49194335938	0.666043241744428	9235.0	
57.16684844098669	792645.0	128.0	128.0	4424875.0	135036.46850585938	0.658109862579091	9125.0	
57.11564208455588	791935.0	128.0	128.0	4424907.0	135037.44506835938	0.6393582390973853	8865.0	
57.15927566996523	792540.0	128.0	128.0	4424939.0	135038.42163085938	0.6198853993279219	8595.0	
57.05469930824034	791090.0	128.0	128.0	4424971.0	135039.39819335938	0.5903155315298476	8185.0	
57.09184194705987	791605.0	128.0	128.0	4425003.0	135040.37475585938	0.5722851243359	7935.0	
57.151342290799896	792430.0	128.0	128.0	4425035.0	135041.35131835938	0.5661547858899577	7850.0	
57.11924816599467	791985.0	128.0	128.0	4425067.0	135042.32788085938	0.5665153940338367	7855.0	
57.12862397773552	792115.0	128.0	128.0	4425099.0	135043.30444335938	0.5571395822929839	7725.0	
57.08751464933332	791545.0	128.0	128.0	4425131.0	135044.28100585938	0.5600244474440155	7765.0	
57.045323496499485	790960.0	128.0	128.0	4425163.0	135045.25756835938	0.5585820148684997	7745.0	
57.069123633995495	791290.0	128.0	128.0	4425195.0	135046.23413085938	0.5499274194154048	7625.0	
57.06804180956386	791275.0	128.0	128.0	4425227.0	135047.21069335938	0.5347818773724887	7415.0	
57.14881803379274	792395.0	128.0	128.0	4425259.0	135048.18725585938	0.5300939715020623	7350.0	
57.15963627810911	792545.0	128.0	128.0	4425291.0	135049.16381835938	0.5272091063510307	7310.0	
57.13547553246922	792210.0	128.0	128.0	4425323.0	135050.14038085938	0.52396363305612	7265.0	
57.07741762130471	791405.0	128.0	128.0	4425355.0	135051.11694335938	0.5145878213152673	7135.0	
57.140884654627406	792285.0	128.0	128.0	4425387.0	135052.09350585938	0.5311757959336991	7365.0	
57.13980283019577	792270.0	128.0	128.0	4425419.0	135053.07006835938	0.5416334321061889	7510.0	
57.11600269269976	791940.0	128.0	128.0	4425451.0	135054.04663085938	0.5463213379766152	7575.0	
57.02657187301778	790700.0	128.0	128.0	4425483.0	135055.02319335938	0.5448789054010994	7555.0	
57.1015783669446	791740.0	128.0	128.0	4425515.0	135055.99975585938	0.5376667425235203	7455.0	
57.099775326225206	791715.0	128.0	128.0	4425547.0	135056.97631835938	0.532257620365336	7380.0	
57.117084517131396	791955.0	128.0	128.0	4425579.0	135057.95288085938	0.5142272131713883	7130.0	
57.11131478682933	791875.0	128.0	128.0	4425611.0	135058.92944335938	0.4972786304090775	6895.0	
57.11239661126097	791890.0	128.0	128.0	4425643.0	135059.90600585938	0.4705936277620349	6525.0	
57.05073261865767	791035.0	128.0	128.0	4425675.0	135060.88256835938	0.4594147753017873	6370.0	
57.05794478153525	791135.0	128.0	128.0	4425707.0	135061.85913085938	0.4550874775752399	6310.0	
56.986904977191095	790150.0	128.0	128.0	4425739.0	135062.83569335938	0.4547268694313609	6305.0	
56.98798680162273	790165.0	128.0	128.0	4425771.0	135063.81225585938	0.4547268694313609	6305.0	
57.0741721480098	791360.0	128.0	128.0	4425803.0	135064.78881835938	0.4626602485966979	6415.0	
57.045323496499485	790960.0	128.0	128.0	4425835.0	135065.76538085938	0.4691511951865191	6505.0	
57.046765929075	790980.0	128.0	128.0	4425867.0	135066.74194335938	0.4547268694313609	6305.0	
57.06840241770774	791280.0	128.0	128.0	4425899.0	135067.71850585938	0.44535105769050815	6175.0	
57.03739011733415	790850.0	128.0	128.0	4425931.0	135068.69506835938	0.4496783554170556	6235.0	
57.04748714536276	790990.0	128.0	128.0	4425963.0	135069.67163085938	0.4457116658343871	6180.0	
57.03739011733415	790850.0	128.0	128.0	4425995.0	135070.64819335938	0.44751470655378184	6205.0	
57.04784775350664	790995.0	128.0	128.0	4426027.0	135071.62475585938	0.44102375996396065	6115.0	
57.14304830349068	792315.0	128.0	128.0	4426059.0	135072.60131835938	0.4568905182946347	6335.0	
57.15711202110196	792510.0	128.0	128.0	4426091.0	135073.57788085938	0.46698754632324535	6475.0	
57.041356806916816	790905.0	128.0	128.0	4426123.0	135074.55444335938	0.46482389745997166	6445.0	
57.05325687566482	791070.0	128.0	128.0	4426155.0	135075.53100585938	0.46193903230894	6405.0	
57.075975188729196	791385.0	128.0	128.0	4426187.0	135076.50756835938	0.4626602485966979	6415.0	
57.09544802849866	791655.0	128.0	128.0	4426219.0	135077.48413085938	0.4446298414027502	6165.0	
57.03919315805354	790875.0	128.0	128.0	4426251.0	135078.46069335938	0.43561463780577636	6040.0	
57.11492086826812	791925.0	128.0	128.0	4426283.0	135079.43725585938	0.41073267587812856	5695.0	
57.07092667471489	791315.0	128.0	128.0	4426315.0	135080.41381835938	0.39919321527400203	5535.0	
57.06984485028325	791300.0	128.0	128.0	4426347.0	135081.39038085938	0.39198105239642295	5435.0	
57.07813883759247	791415.0	128.0	128.0	4426379.0	135082.36694335938	0.3945053094035756	5470.0	
57.093644987779264	791630.0	128.0	128.0	4426411.0	135083.34350585938	0.38729314652599656	5370.0	
57.03017795445657	790750.0	128.0	128.0	4426443.0	135084.32006835938	0.3786385510729016	5250.0	
57.0193597101402	790600.0	128.0	128.0	4426475.0	135085.29663085938	0.37935976736065957	5260.0	
57.08138431088738	791460.0	128.0	128.0	4426507.0	135086.27319335938	0.37395064520247523	5185.0	
57.045323496499485	790960.0	128.0	128.0	4426539.0	135087.24975585938	0.37395064520247523	5185.0	
57.02008092642796	790610.0	128.0	128.0	4426571.0	135088.22631835938	0.36998395561980674	5130.0	
56.990150450486006	790195.0	128.0	128.0	4426603.0	135089.20288085938	0.36854152304429094	5110.0	
57.100135934369085	791720.0	128.0	128.0	4426635.0	135090.17944335938	0.3649354416055014	5060.0	
57.05614174081585	791110.0	128.0	128.0	4426667.0	135091.15600585938	0.36782030675653304	5100.0	
57.06407511998119	791220.0	128.0	128.0	4426699.0	135092.13256835938	0.3811628080800543	5285.0	
57.075975188729196	791385.0	128.0	128.0	4426731.0	135093.10913085938	0.38873557910151235	5390.0	
57.09761167736193	791685.0	128.0	128.0	4426763.0	135094.08569335938	0.3844082813749649	5330.0	
57.093644987779264	791630.0	128.0	128.0	4426795.0	135095.06225585938	0.3851294976627228	5340.0	
57.02981734631269	790745.0	128.0	128.0	4426827.0	135096.03881835938	0.3789991592167806	5255.0	
57.06984485028325	791300.0	128.0	128.0	4426859.0	135097.01538085938	0.3696233474759278	5125.0	
56.990150450486006	790195.0	128.0	128.0	4426891.0	135097.99194335938	0.35411719728913277	4910.0	
57.05974782225464	791160.0	128.0	128.0	4426923.0	135098.96850585938	0.34005347967785354	4715.0	
57.011065722830985	790485.0	128.0	128.0	4426955.0	135099.94506835938	0.3155321258940847	4375.0	
57.05505991638422	791095.0	128.0	128.0	4426987.0	135100.92163085938	0.30904117930426356	4285.0	
57.09436620406702	791640.0	128.0	128.0	4427019.0	135101.89819335938	0.3068775304409898	4255.0	
56.99267470749316	790230.0	128.0	128.0	4427051.0	135102.87475585938	0.2982229349878949	4135.0	
57.03017795445657	790750.0	128.0	128.0	4427083.0	135103.85131835938	0.29497746169298433	4090.0	
57.044962888355606	790955.0	128.0	128.0	4427115.0	135104.82788085938	0.2938956372613475	4075.0	
57.038832549909664	790870.0	128.0	128.0	4427147.0	135105.80444335938	0.28524104180825255	3955.0	
57.0125081554065	790505.0	128.0	128.0	4427179.0	135106.78100585938	0.28524104180825255	3955.0	
57.06082964668628	791175.0	128.0	128.0	4427211.0	135107.75756835938	0.2841592173766157	3940.0	
57.0399143743413	790885.0	128.0	128.0	4427243.0	135108.73413085938	0.2794713115061893	3875.0	
57.06659937698834	791255.0	128.0	128.0	4427275.0	135109.71069335938	0.27586523006739977	3825.0	
57.011426330974864	790490.0	128.0	128.0	4427307.0	135110.68725585938	0.2834380010888578	3930.0	
56.954089636098104	789695.0	128.0	128.0	4427339.0	135111.66381835938	0.2874046906715263	3985.0	
56.94074713477458	789510.0	128.0	128.0	4427371.0	135112.64038085938	0.28848651510316314	4000.0	
56.87295280372534	788570.0	128.0	128.0	4427403.0	135113.61694335938	0.29750171870013703	4125.0	
56.94615625693277	789585.0	128.0	128.0	4427435.0	135114.59350585938	0.3036320571460792	4210.0	
56.97752916545024	790020.0	128.0	128.0	4427467.0	135115.57006835938	0.2985835431317739	4140.0	
56.97536551658697	789990.0	128.0	128.0	4427499.0	135116.54663085938	0.2967805024123791	4115.0	
56.95553206867362	789715.0	128.0	128.0	4427531.0	135117.52319335938	0.2874046906715263	3985.0	
57.00493538438504	790400.0	128.0	128.0	4427563.0	135118.49975585938	0.27658644635515767	3835.0	
56.95445024424198	789700.0	128.0	128.0	4427595.0	135119.47631835938	0.26432576946327324	3665.0	
56.936419837048035	789450.0	128.0	128.0	4427627.0	135120.45288085938	0.24449232154993078	3390.0	
56.99988687037074	790330.0	128.0	128.0	4427659.0	135121.42944335938	0.24629536226932555	3415.0	
57.035226468470874	790820.0	128.0	128.0	4427691.0	135122.40600585938	0.25458934957854146	3530.0	
57.003853559953406	790385.0	128.0	128.0	4427723.0	135123.38256835938	0.25386813329078356	3520.0	
57.027653697449416	790715.0	128.0	128.0	4427755.0	135124.35913085938	0.25098326813975197	3480.0	
56.986904977191095	790150.0	128.0	128.0	4427787.0	135125.33569335938	0.24629536226932555	3415.0	
56.98798680162273	790165.0	128.0	128.0	4427819.0	135126.31225585938	0.2567529984418152	3560.0	
57.05974782225464	791160.0	128.0	128.0	4427851.0	135127.28881835938	0.2607196880244837	3615.0	
57.00168991109013	790355.0	128.0	128.0	4427883.0	135128.26538085938	0.258195431017331	3580.0	
57.06479633626895	791230.0	128.0	128.0	4427915.0	135129.24194335938	0.26288333688775745	3645.0	
56.97464430029921	789980.0	128.0	128.0	4427947.0	135130.21850585938	0.266128810182668	3690.0	
57.02585065673002	790690.0	128.0	128.0	4427979.0	135131.19506835938	0.2654075938949101	3680.0	
57.034865860326995	790815.0	128.0	128.0	4428011.0	135132.17163085938	0.28055313593782616	3890.0	
57.0330628196076	790790.0	128.0	128.0	4428043.0	135133.14819335938	0.2848804336643736	3950.0	
56.93714105333579	789460.0	128.0	128.0	4428075.0	135134.12475585938	0.2967805024123791	4115.0	
57.000247478514616	790335.0	128.0	128.0	4428107.0	135135.10131835938	0.2996653675634107	4155.0	
57.00132930294625	790350.0	128.0	128.0	4428139.0	135136.07788085938	0.3021896245705634	4190.0	
57.00349295180953	790380.0	128.0	128.0	4428171.0	135137.05444335938	0.3021896245705634	4190.0	
56.98618376090334	790140.0	128.0	128.0	4428203.0	135138.03100585938	0.2841592173766157	3940.0	
56.88449226432947	788730.0	128.0	128.0	4428235.0	135139.00756835938	0.274062189348005	3800.0	
56.96887456999715	789900.0	128.0	128.0	4428267.0	135139.98413085938	0.26288333688775745	3645.0	
56.942910783637856	789540.0	128.0	128.0	4428299.0	135140.96069335938	0.25314691700302566	3510.0	
56.994117140068674	790250.0	128.0	128.0	4428331.0	135141.93725585938	0.2553105658662994	3540.0	
56.997723221507464	790300.0	128.0	128.0	4428363.0	135142.91381835938	0.2542287414346625	3525.0	
56.936780445191914	789455.0	128.0	128.0	4428395.0	135143.89038085938	0.2553105658662994	3540.0	
57.01322937169426	790515.0	128.0	128.0	4428427.0	135144.86694335938	0.2567529984418152	3560.0	
56.98113524688903	790070.0	128.0	128.0	4428459.0	135145.84350585938	0.2553105658662994	3540.0	
56.90324388781117	788990.0	128.0	128.0	4428491.0	135146.82006835938	0.26180151245612054	3630.0	
57.000247478514616	790335.0	128.0	128.0	4428523.0	135147.79663085938	0.26360455317551534	3655.0	
56.969956394428785	789915.0	128.0	128.0	4428555.0	135148.77319335938	0.26504698575103114	3675.0	
57.00277173552177	790370.0	128.0	128.0	4428587.0	135149.74975585938	0.2704561079092155	3750.0	
56.96887456999715	789900.0	128.0	128.0	4428619.0	135150.72631835938	0.2686530671898207	3725.0	
56.980053422457395	790055.0	128.0	128.0	4428651.0	135151.70288085938	0.2834380010888578	3930.0	
57.02044153457184	790615.0	128.0	128.0	4428683.0	135152.67944335938	0.30399266528995816	4215.0	
56.96310483969508	789820.0	128.0	128.0	4428715.0	135153.65600585938	0.31445030146244785	4360.0	
56.9627442315512	789815.0	128.0	128.0	4428747.0	135154.63256835938	0.3155321258940847	4375.0	
57.00818085767995	790445.0	128.0	128.0	4428779.0	135155.60913085938	0.3180563829012374	4410.0	
57.00349295180953	790380.0	128.0	128.0	4428811.0	135156.58569335938	0.3155321258940847	4375.0	
56.95300781166647	789680.0	128.0	128.0	4428843.0	135157.56225585938	0.3043532734338371	4220.0	
56.91045605068875	789090.0	128.0	128.0	4428875.0	135158.53881835938	0.28704408252764735	3980.0	
56.90288327966729	788985.0	128.0	128.0	4428907.0	135159.51538085938	0.2762258382112787	3830.0	
56.96238362340732	789810.0	128.0	128.0	4428939.0	135160.49194335938	0.26108029616836265	3620.0	
56.82427070430168	787895.0	128.0	128.0	4428971.0	135161.46850585938	0.2679318509020628	3715.0	
56.8942286842142	788865.0	128.0	128.0	4429003.0	135162.44506835938	0.26757124275818384	3710.0	
56.8718709792937	788555.0	128.0	128.0	4429035.0	135163.42163085938	0.2632439450316364	3650.0	
56.902522671523414	788980.0	128.0	128.0	4429067.0	135164.39819335938	0.26180151245612054	3630.0	
56.89999841451626	788945.0	128.0	128.0	4429099.0	135165.37475585938	0.2614409043122416	3625.0	
56.93209253932149	789390.0	128.0	128.0	4429131.0	135166.35131835938	0.25711360658569415	3565.0	
56.88449226432947	788730.0	128.0	128.0	4429163.0	135167.32788085938	0.25386813329078356	3520.0	
56.888098345768256	788780.0	128.0	128.0	4429195.0	135168.30444335938	0.250262051851994	3470.0	
56.93569862076028	789440.0	128.0	128.0	4429227.0	135169.28100585938	0.24413171340605183	3385.0	
56.90071963080402	788955.0	128.0	128.0	4429259.0	135170.25756835938	0.23295286094580425	3230.0	
56.990871666773764	790205.0	128.0	128.0	4429291.0	135171.23413085938	0.2325922528019253	3225.0	
57.00637781696056	790420.0	128.0	128.0	4429323.0	135172.21069335938	0.242689280830536	3365.0	
56.96310483969508	789820.0	128.0	128.0	4429355.0	135173.18725585938	0.2466559704132045	3420.0	
56.94182895920622	789525.0	128.0	128.0	4429387.0	135174.16381835938	0.2520650925713888	3495.0	
56.94435321621337	789560.0	128.0	128.0	4429419.0	135175.14038085938	0.25098326813975197	3480.0	
56.94615625693277	789585.0	128.0	128.0	4429451.0	135176.11694335938	0.25062265999587297	3475.0	
56.98546254461558	790130.0	128.0	128.0	4429483.0	135177.09350585938	0.24016502382338334	3330.0	
56.923077335724514	789265.0	128.0	128.0	4429515.0	135178.07006835938	0.22754373878761994	3155.0	
56.96671092113387	789870.0	128.0	128.0	4429547.0	135179.04663085938	0.21167698045694597	2935.0	
56.953729027954225	789690.0	128.0	128.0	4429579.0	135180.02319335938	0.1925647488313614	2670.0	
56.96635031298999	789865.0	128.0	128.0	4429611.0	135180.99975585938	0.18895866739257186	2620.0	
56.969956394428785	789915.0	128.0	128.0	4429643.0	135181.97631835938	0.18787684296093501	2605.0	
56.99123227491764	790210.0	128.0	128.0	4429675.0	135182.95288085938	0.1792222475078401	2485.0	
56.95841693382465	789755.0	128.0	128.0	4429707.0	135183.92944335938	0.18463136966602442	2560.0	
56.973201867723695	789960.0	128.0	128.0	4429739.0	135184.90600585938	0.18066468008335593	2505.0	
56.90721057739384	789045.0	128.0	128.0	4429771.0	135185.88256835938	0.18066468008335593	2505.0	
57.007459641392195	790435.0	128.0	128.0	4429803.0	135186.85913085938	0.18427076152214547	2555.0	
56.97175943514818	789940.0	128.0	128.0	4429835.0	135187.83569335938	0.18679501852929814	2590.0	
56.93425618818476	789420.0	128.0	128.0	4429867.0	135188.81225585938	0.1831889370905086	2540.0	
56.92415916015615	789280.0	128.0	128.0	4429899.0	135189.78881835938	0.18751623481705604	2600.0	
56.94543504064501	789575.0	128.0	128.0	4429931.0	135190.76538085938	0.19076170811196663	2645.0	
56.98942923419825	790185.0	128.0	128.0	4429963.0	135191.74194335938	0.2066284664426406	2865.0	
56.99483835635643	790260.0	128.0	128.0	4429995.0	135192.71850585938	0.2160042781834934	2995.0	
56.97248065143594	789950.0	128.0	128.0	4430027.0	135193.69506835938	0.22754373878761994	3155.0	
56.926683417163304	789315.0	128.0	128.0	4430059.0	135194.67163085938	0.22970738765089366	3185.0	
56.99483835635643	790260.0	128.0	128.0	4430091.0	135195.64819335938	0.23187103651416738	3215.0	
56.947238081364404	789600.0	128.0	128.0	4430123.0	135196.62475585938	0.22285583291719355	3090.0	
56.919471254285725	789215.0	128.0	128.0	4430155.0	135197.60131835938	0.19941630356506154	2765.0	
56.96490788041447	789845.0	128.0	128.0	4430187.0	135198.57788085938	0.18138589637111383	2515.0	
56.91370152398366	789135.0	128.0	128.0	4430219.0	135199.55444335938	0.17092826019862417	2370.0	
56.97572612473085	789995.0	128.0	128.0	4430251.0	135200.53100585938	0.15794636701898182	2190.0	
56.92740463345106	789325.0	128.0	128.0	4430283.0	135201.50756835938	0.1651585298965609	2290.0	
56.929928890458214	789360.0	128.0	128.0	4430315.0	135202.48413085938	0.1651585298965609	2290.0	
56.88413165618559	788725.0	128.0	128.0	4430347.0	135203.46069335938	0.1619130566016503	2245.0	
56.94615625693277	789585.0	128.0	128.0	4430379.0	135204.43725585938	0.1684040031914715	2335.0	
56.92740463345106	789325.0	128.0	128.0	4430411.0	135205.41381835938	0.17020704391086627	2360.0	
56.940386526630704	789505.0	128.0	128.0	4430443.0	135206.39038085938	0.16660096247207673	2310.0	
56.88629530504886	788755.0	128.0	128.0	4430475.0	135207.36694335938	0.16768278690371358	2325.0	
56.95769571753689	789745.0	128.0	128.0	4430507.0	135208.34350585938	0.16155244845777136	2240.0	
56.91081665883263	789095.0	128.0	128.0	4430539.0	135209.32006835938	0.15470089372407125	2145.0	
56.946877473220525	789595.0	128.0	128.0	4430571.0	135210.29663085938	0.16551913804043986	2295.0	
56.80768272968325	787665.0	128.0	128.0	4430603.0	135211.27319335938	0.1658797461843188	2300.0	
56.857807261682424	788360.0	128.0	128.0	4430635.0	135212.24975585938	0.18210711265887175	2525.0	
56.813091851841435	787740.0	128.0	128.0	4430667.0	135213.22631835938	0.1965314384140299	2725.0	
56.80371604010058	787610.0	128.0	128.0	4430699.0	135214.20288085938	0.19472839769463512	2700.0	
56.837252597481324	788075.0	128.0	128.0	4430731.0	135215.17944335938	0.19292535697524035	2675.0	
56.93569862076028	789440.0	128.0	128.0	4430763.0	135216.15600585938	0.1925647488313614	2670.0	
56.81381306812919	787750.0	128.0	128.0	4430795.0	135217.13256835938	0.18967988368032979	2630.0	
56.84266171963951	788150.0	128.0	128.0	4430827.0	135218.10913085938	0.17777981493232428	2465.0	
56.840137462632356	788115.0	128.0	128.0	4430859.0	135219.08569335938	0.1752555579251716	2430.0	
56.89314685978256	788850.0	128.0	128.0	4430891.0	135220.06225585938	0.1651585298965609	2290.0	
56.864658816416124	788455.0	128.0	128.0	4430923.0	135221.03881835938	0.16479792175268196	2285.0	
56.95300781166647	789680.0	128.0	128.0	4430955.0	135222.01538085938	0.16551913804043986	2295.0	
56.89350746792644	788855.0	128.0	128.0	4430987.0	135222.99194335938	0.17669799050068744	2450.0	
56.94759868950828	789605.0	128.0	128.0	4431019.0	135223.96850585938	0.18138589637111383	2515.0	
56.91117726697651	789100.0	128.0	128.0	4431051.0	135224.94506835938	0.18391015337826652	2550.0	
56.878361925883524	788645.0	128.0	128.0	4431083.0	135225.92163085938	0.19544961398239305	2710.0	
56.950483554659314	789645.0	128.0	128.0	4431115.0	135226.89819335938	0.20626785829876165	2860.0	
56.91766821356633	789190.0	128.0	128.0	4431147.0	135227.87475585938	0.2160042781834934	2995.0	
56.923077335724514	789265.0	128.0	128.0	4431179.0	135228.85131835938	0.21275880488858281	2950.0	
56.93822287776743	789475.0	128.0	128.0	4431211.0	135229.82788085938	0.21203758860082492	2940.0	
56.91802882171021	789195.0	128.0	128.0	4431243.0	135230.80444335938	0.20374360129160898	2825.0	
56.95769571753689	789745.0	128.0	128.0	4431275.0	135231.78100585938	0.21203758860082492	2940.0	
56.92812584973882	789335.0	128.0	128.0	4431307.0	135232.75756835938	0.21420123746409864	2970.0	
56.91694699727857	789180.0	128.0	128.0	4431339.0	135233.73413085938	0.21131637231306702	2930.0	
56.90396510409893	789000.0	128.0	128.0	4431371.0	135234.71069335938	0.19544961398239305	2710.0	
56.901801455235656	788970.0	128.0	128.0	4431403.0	135235.68725585938	0.19941630356506154	2765.0	
56.90144084709178	788965.0	128.0	128.0	4431435.0	135236.66381835938	0.20013751985281944	2775.0	
56.96454727227059	789840.0	128.0	128.0	4431467.0	135237.64038085938	0.1972526547017878	2735.0	
56.91802882171021	789195.0	128.0	128.0	4431499.0	135238.61694335938	0.19292535697524035	2675.0	
56.95517146052974	789710.0	128.0	128.0	4431531.0	135239.59350585938	0.18607380224154024	2580.0	
56.8924256434948	788840.0	128.0	128.0	4431563.0	135240.57006835938	0.18282832894662965	2535.0	
56.9010802389479	788960.0	128.0	128.0	4431595.0	135241.54663085938	0.18282832894662965	2535.0	
56.92343794386839	789270.0	128.0	128.0	4431627.0	135242.52319335938	0.1871556266731771	2595.0	
56.87728010145189	788630.0	128.0	128.0	4431659.0	135243.49975585938	0.19148292439972456	2655.0	
56.905407536674446	789020.0	128.0	128.0	4431691.0	135244.47631835938	0.19004049182420873	2635.0	
56.90721057739384	789045.0	128.0	128.0	4431723.0	135245.45288085938	0.1871556266731771	2595.0	
56.919110646141846	789210.0	128.0	128.0	4431755.0	135246.42944335938	0.18895866739257186	2620.0	
56.867904289711035	788500.0	128.0	128.0	4431787.0	135247.40600585938	0.1965314384140299	2725.0	
56.88918017019989	788795.0	128.0	128.0	4431819.0	135248.38256835938	0.19400718140687723	2690.0	
56.87980435845904	788665.0	128.0	128.0	4431851.0	135249.35913085938	0.19508900583851407	2705.0	
56.940386526630704	789505.0	128.0	128.0	4431883.0	135250.33569335938	0.20879211530591432	2895.0	
56.84121928706399	788130.0	128.0	128.0	4431915.0	135251.31225585938	0.22501948178046727	3120.0	
56.88304983175395	788710.0	128.0	128.0	4431947.0	135252.28881835938	0.24088624011114124	3340.0	
56.85528300467527	788325.0	128.0	128.0	4431979.0	135253.26538085938	0.26035907988060475	3610.0	
56.91875003799797	789205.0	128.0	128.0	4432011.0	135254.24194335938	0.27081671605309443	3755.0	
56.90432571224281	789005.0	128.0	128.0	4432043.0	135255.21850585938	0.26288333688775745	3645.0	
56.912619699552025	789120.0	128.0	128.0	4432075.0	135256.19506835938	0.26973489162145753	3740.0	
56.857446653538545	788355.0	128.0	128.0	4432107.0	135257.17163085938	0.274062189348005	3800.0	
56.88232861546619	788700.0	128.0	128.0	4432139.0	135258.14819335938	0.2801925277939472	3885.0	
56.868264897854914	788505.0	128.0	128.0	4432171.0	135259.12475585938	0.2726197567724892	3780.0	
56.89675294122135	788900.0	128.0	128.0	4432203.0	135260.10131835938	0.266489418326547	3695.0	
56.79470083650361	787485.0	128.0	128.0	4432235.0	135261.07788085938	0.26829245904594173	3720.0	
56.834007124186414	788030.0	128.0	128.0	4432267.0	135262.05444335938	0.2827167848010999	3920.0	
56.72870954617376	786570.0	128.0	128.0	4432299.0	135263.03100585938	0.29353502911746854	4070.0	
56.730873195037034	786600.0	128.0	128.0	4432331.0	135264.00756835938	0.297141110556258	4120.0	
56.83292529975478	788015.0	128.0	128.0	4432363.0	135264.98413085938	0.3021896245705634	4190.0	
56.85852847797018	788370.0	128.0	128.0	4432395.0	135265.96069335938	0.2985835431317739	4140.0	
56.836891989337445	788070.0	128.0	128.0	4432427.0	135266.93725585938	0.30651692229711086	4250.0	
56.84194050335175	788140.0	128.0	128.0	4432459.0	135267.91381835938	0.305435097865474	4235.0	
56.792897795784214	787460.0	128.0	128.0	4432491.0	135268.89038085938	0.30723813858486876	4260.0	
56.826794961308835	787930.0	128.0	128.0	4432523.0	135269.86694335938	0.31913820733287424	4425.0	
56.85564361281915	788330.0	128.0	128.0	4432555.0	135270.84350585938	0.3148109096063268	4365.0	
56.83869503005684	788095.0	128.0	128.0	4432587.0	135271.82006835938	0.3476262506993116	4820.0	
56.9061287529622	789030.0	128.0	128.0	4432619.0	135272.79663085938	0.35880510315955916	4975.0	
56.84879205808545	788235.0	128.0	128.0	4432651.0	135273.77319335938	0.36782030675653304	5100.0	
56.9129803076959	789125.0	128.0	128.0	4432683.0	135274.74975585938	0.36457483346162245	5055.0	
56.91117726697651	789100.0	128.0	128.0	4432715.0	135275.72631835938	0.3544778054330117	4915.0	
56.82535252873332	787910.0	128.0	128.0	4432747.0	135276.70288085938	0.3505111158503432	4860.0	
56.87259219558146	788565.0	128.0	128.0	4432779.0	135277.67944335938	0.3454626018360379	4790.0	
56.929207674170456	789350.0	128.0	128.0	4432811.0	135278.65600585938	0.3407746959656115	4725.0	
56.83220408346702	788005.0	128.0	128.0	4432843.0	135279.63256835938	0.34041408782173255	4720.0	
56.86321638384061	788435.0	128.0	128.0	4432875.0	135280.60913085938	0.34582320997991683	4795.0	
56.86393760012837	788445.0	128.0	128.0	4432907.0	135281.58569335938	0.352674764713617	4890.0	
56.87764070959577	788635.0	128.0	128.0	4432939.0	135282.56225585938	0.3631324008861066	5035.0	
56.867904289711035	788500.0	128.0	128.0	4432971.0	135283.53881835938	0.3609687520228329	5005.0	
56.84266171963951	788150.0	128.0	128.0	4433003.0	135284.51538085938	0.3537565891452538	4905.0	
56.84843144994157	788230.0	128.0	128.0	4433035.0	135285.49194335938	0.3469050344115537	4810.0	
56.88304983175395	788710.0	128.0	128.0	4433067.0	135286.46850585938	0.34041408782173255	4720.0	
56.837252597481324	788075.0	128.0	128.0	4433099.0	135287.44506835938	0.33644739823906405	4665.0	
56.898916590084625	788930.0	128.0	128.0	4433131.0	135288.42163085938	0.33716861452682195	4675.0	
56.799388742374035	787550.0	128.0	128.0	4433163.0	135289.39819335938	0.3454626018360379	4790.0	
56.86033151868958	788395.0	128.0	128.0	4433195.0	135290.37475585938	0.36854152304429094	5110.0	
56.85708604539467	788350.0	128.0	128.0	4433227.0	135291.35131835938	0.3945053094035756	5470.0	
56.778834078172935	787265.0	128.0	128.0	4433259.0	135292.32788085938	0.4172236224679497	5785.0	
56.874395236300856	788590.0	128.0	128.0	4433291.0	135293.30444335938	0.4406631518200817	6110.0	
56.78640684919439	787370.0	128.0	128.0	4433323.0	135294.28100585938	0.4536450449997241	6290.0	
56.84915266622933	788240.0	128.0	128.0	4433355.0	135295.25756835938	0.4659057218916085	6460.0	
56.8188615821435	787820.0	128.0	128.0	4433387.0	135296.23413085938	0.4641026811722137	6435.0	
56.784603808475	787345.0	128.0	128.0	4433419.0	135297.21069335938	0.4550874775752399	6310.0	
56.86898611414267	788515.0	128.0	128.0	4433451.0	135298.18725585938	0.44607227397826604	6185.0	
56.84230111149563	788145.0	128.0	128.0	4433483.0	135299.16381835938	0.4251570016332867	5895.0	
56.84266171963951	788150.0	128.0	128.0	4433515.0	135300.14038085938	0.40568416186382317	5625.0	
56.84302232778339	788155.0	128.0	128.0	4433547.0	135301.11694335938	0.39739017455460723	5510.0	
56.83869503005684	788095.0	128.0	128.0	4433579.0	135302.09350585938	0.3890961872453913	5395.0	
56.85961030240182	788385.0	128.0	128.0	4433611.0	135303.07006835938	0.3789991592167806	5255.0	
56.82246766358229	787870.0	128.0	128.0	4433643.0	135304.04663085938	0.3786385510729016	5250.0	
56.77991590260457	787280.0	128.0	128.0	4433675.0	135305.02319335938	0.38008098364841747	5270.0	
56.819582798431256	787830.0	128.0	128.0	4433707.0	135305.99975585938	0.3746718614902331	5195.0	
56.815976716992466	787780.0	128.0	128.0	4433739.0	135306.97631835938	0.3746718614902331	5195.0	
56.81056759483428	787705.0	128.0	128.0	4433771.0	135307.95288085938	0.3768355103535069	5225.0	
56.87547706073249	788605.0	128.0	128.0	4433803.0	135308.92944335938	0.3696233474759278	5125.0	
56.82535252873332	787910.0	128.0	128.0	4433835.0	135309.90600585938	0.3714263881953226	5150.0	
56.720776167008424	786460.0	128.0	128.0	4433867.0	135310.88256835938	0.36132936016671185	5010.0	
56.69841846208793	786150.0	128.0	128.0	4433899.0	135311.85913085938	0.3829658487994491	5310.0	
56.654784876678576	785545.0	128.0	128.0	4433931.0	135312.83569335938	0.4020780804250336	5575.0	
56.75972184654735	787000.0	128.0	128.0	4433963.0	135313.81225585938	0.4280418667843183	5935.0	
56.696254813224655	786120.0	128.0	128.0	4433995.0	135314.78881835938	0.4536450449997241	6290.0	
56.75359150810141	786915.0	128.0	128.0	4434027.0	135315.76538085938	0.47672396620797713	6610.0	
56.775588604878024	787220.0	128.0	128.0	4434059.0	135316.74194335938	0.4925907245386511	6830.0	
56.7366429253391	786680.0	128.0	128.0	4434091.0	135317.71850585938	0.4972786304090775	6895.0	
56.74277326378504	786765.0	128.0	128.0	4434123.0	135318.69506835938	0.4998028874162302	6930.0	
56.7690976582882	787130.0	128.0	128.0	4434155.0	135319.67163085938	0.4954755896896827	6870.0	
56.72582468102273	786530.0	128.0	128.0	4434187.0	135320.64819335938	0.48898464309986156	6780.0	
56.75683698139632	786960.0	128.0	128.0	4434219.0	135321.62475585938	0.4839361290855562	6710.0	
56.75936123840347	786995.0	128.0	128.0	4434251.0	135322.60131835938	0.48718160238046676	6755.0	
56.85961030240182	788385.0	128.0	128.0	4434283.0	135323.57788085938	0.5106211317325988	7080.0	
56.799028134230156	787545.0	128.0	128.0	4434315.0	135324.55444335938	0.5445182972572205	7550.0	
56.826434353164956	787925.0	128.0	128.0	4434347.0	135325.53100585938	0.5636305288828051	7815.0	
56.795782660935245	787500.0	128.0	128.0	4434379.0	135326.50756835938	0.5899549233859687	8180.0	
56.796503877223	787510.0	128.0	128.0	4434411.0	135327.48413085938	0.6004125595584583	8325.0	
56.79109475506482	787435.0	128.0	128.0	4434443.0	135328.46069335938	0.6213278319034377	8615.0	
56.802634215668945	787595.0	128.0	128.0	4434475.0	135329.43725585938	0.6408006716729011	8885.0	
56.85492239653139	788320.0	128.0	128.0	4434507.0	135330.41381835938	0.6494552671259961	9005.0	
56.74890360223098	786850.0	128.0	128.0	4434539.0	135331.39038085938	0.6721735801903701	9320.0	
56.74385508821668	786780.0	128.0	128.0	4434571.0	135332.36694335938	0.6902039873843179	9570.0	
56.7416914393534	786750.0	128.0	128.0	4434603.0	135333.34350585938	0.6905645955281968	9575.0	
56.71644886928188	786400.0	128.0	128.0	4434635.0	135334.32006835938	0.6905645955281968	9575.0	
56.682912311901134	785935.0	128.0	128.0	4434667.0	135335.29663085938	0.6952525013986232	9640.0	
56.822828271726166	787875.0	128.0	128.0	4434699.0	135336.27319335938	0.6826312163628598	9465.0	
56.72474285659109	786515.0	128.0	128.0	4434731.0	135337.24975585938	0.6671250661760648	9250.0	
56.795422052791366	787495.0	128.0	128.0	4434763.0	135338.22631835938	0.6588310788668489	9135.0	
56.778834078172935	787265.0	128.0	128.0	4434795.0	135339.20288085938	0.6537825648525435	9065.0	
56.7553945488208	786940.0	128.0	128.0	4434827.0	135340.17944335938	0.6527007404209066	9050.0	
56.72330042401558	786495.0	128.0	128.0	4434859.0	135341.15600585938	0.6588310788668489	9135.0	
56.72438224844721	786510.0	128.0	128.0	4434891.0	135342.13256835938	0.6588310788668489	9135.0	
56.662357647700034	785650.0	128.0	128.0	4434923.0	135343.10913085938	0.6559462137158172	9095.0	
56.672454675728645	785790.0	128.0	128.0	4434955.0	135344.08569335938	0.6555856055719382	9090.0	
56.64540906493772	785415.0	128.0	128.0	4434987.0	135345.06225585938	0.657749254435212	9120.0	
56.72618528916661	786535.0	128.0	128.0	4435019.0	135346.03881835938	0.6494552671259961	9005.0	
56.682551703757255	785930.0	128.0	128.0	4435051.0	135347.01538085938	0.6545037811403014	9075.0	
56.65045757895203	785485.0	128.0	128.0	4435083.0	135347.99194335938	0.6472916182627223	8975.0	
56.7348398846197	786655.0	128.0	128.0	4435115.0	135348.96850585938	0.6519795241331487	9040.0	
56.75287029181365	786905.0	128.0	128.0	4435147.0	135349.94506835938	0.6646008091689121	9215.0	
56.70887609826042	786295.0	128.0	128.0	4435179.0	135350.92163085938	0.6624371603056384	9185.0	
56.75972184654735	787000.0	128.0	128.0	4435211.0	135351.89819335938	0.6718129720464912	9315.0	
56.70382758424611	786225.0	128.0	128.0	4435243.0	135352.87475585938	0.6833524326506177	9475.0	
56.754312724389166	786925.0	128.0	128.0	4435275.0	135353.85131835938	0.6869585140894072	9525.0	
56.77955529446069	787275.0	128.0	128.0	4435307.0	135354.82788085938	0.6927282443914705	9605.0	
56.78424320033112	787340.0	128.0	128.0	4435339.0	135355.80444335938	0.6988585828374128	9690.0	
56.713203395986966	786355.0	128.0	128.0	4435371.0	135356.78100585938	0.7024646642762022	9740.0	
56.74710056151159	786825.0	128.0	128.0	4435403.0	135357.75756835938	0.7013828398445654	9725.0	
56.79361901207197	787470.0	128.0	128.0	4435435.0	135358.73413085938	0.7039070968517182	9760.0	
56.689403258490955	786025.0	128.0	128.0	4435467.0	135359.71069335938	0.6981373665496549	9680.0	
56.689042650347076	786020.0	128.0	128.0	4435499.0	135360.68725585938	0.6941706769669863	9625.0	
56.57689351760072	784465.0	128.0	128.0	4435531.0	135361.66381835938	0.6941706769669863	9625.0	
56.67389710830416	785810.0	128.0	128.0	4435563.0	135362.64038085938	0.6721735801903701	9320.0	
56.64613028122548	785425.0	128.0	128.0	4435595.0	135363.61694335938	0.6552249974280593	9085.0	
56.74710056151159	786825.0	128.0	128.0	4435627.0	135364.59350585938	0.6310642517881694	8750.0	
56.70527001682163	786245.0	128.0	128.0	4435659.0	135365.57006835938	0.6339491169392011	8790.0	
56.74529752079219	786800.0	128.0	128.0	4435691.0	135366.54663085938	0.642243104248417	8905.0	
56.71284278784309	786350.0	128.0	128.0	4435723.0	135367.52319335938	0.650537091557633	9020.0	
56.69517298879302	786105.0	128.0	128.0	4435755.0	135368.49975585938	0.6649614173127911	9220.0	
56.76080367097899	787015.0	128.0	128.0	4435787.0	135369.47631835938	0.6638795928811542	9205.0	
56.7229398158717	786490.0	128.0	128.0	4435819.0	135370.45288085938	0.6599129032984857	9150.0	
56.75287029181365	786905.0	128.0	128.0	4435851.0	135371.42944335938	0.6725341883342492	9325.0	
56.77414617230251	787200.0	128.0	128.0	4435883.0	135372.40600585938	0.6855160815138914	9505.0	
56.71103974712369	786325.0	128.0	128.0	4435915.0	135373.38256835938	0.6920070281037126	9595.0	
56.79434022835973	787480.0	128.0	128.0	4435947.0	135374.35913085938	0.6865979059455283	9520.0	
56.737724749770734	786695.0	128.0	128.0	4435979.0	135375.33569335938	0.6833524326506177	9475.0	
56.80443725638834	787620.0	128.0	128.0	4436011.0	135376.31225585938	0.6775827023485544	9395.0	
56.75864002211571	786985.0	128.0	128.0	4436043.0	135377.28881835938	0.6678462824638227	9260.0	
56.809125162258766	787685.0	128.0	128.0	4436075.0	135378.26538085938	0.6642402010250331	9210.0	
56.76765522571269	787110.0	128.0	128.0	4436107.0	135379.24194335938	0.6465704019749644	8965.0	
56.70490940867775	786240.0	128.0	128.0	4436139.0	135380.21850585938	0.63430972508308	8795.0	
56.761524887266745	787025.0	128.0	128.0	4436171.0	135381.19506835938	0.6386370228096274	8855.0	
56.7640491442739	787060.0	128.0	128.0	4436203.0	135382.17163085938	0.6368339820902327	8830.0	
56.75323089995753	786910.0	128.0	128.0	4436235.0	135383.14819335938	0.6281793866371378	8710.0	
56.7092367064043	786300.0	128.0	128.0	4436267.0	135384.12475585938	0.6195247911840429	8590.0	
56.75214907552589	786895.0	128.0	128.0	4436299.0	135385.10131835938	0.6180823586085271	8570.0	
56.819582798431256	787830.0	128.0	128.0	4436331.0	135386.07788085938	0.6195247911840429	8590.0	
56.758279413971835	786980.0	128.0	128.0	4436363.0	135387.05444335938	0.6224096563350745	8630.0	
56.747461169655466	786830.0	128.0	128.0	4436395.0	135388.03100585938	0.6310642517881694	8750.0	
56.77270373972699	787180.0	128.0	128.0	4436427.0	135389.00756835938	0.6332279006514431	8780.0	
56.737364141626855	786690.0	128.0	128.0	4436459.0	135389.98413085938	0.6339491169392011	8790.0	
56.71140035526757	786330.0	128.0	128.0	4436491.0	135390.96069335938	0.6379158065218695	8845.0	
56.76260671169838	787040.0	128.0	128.0	4436523.0	135391.93725585938	0.6454885775433276	8950.0	
56.71969434257679	786445.0	128.0	128.0	4436555.0	135392.91381835938	0.6588310788668489	9135.0	
56.816697933280224	787790.0	128.0	128.0	4436587.0	135393.89038085938	0.6667644580321859	9245.0	
56.67461832459192	785820.0	128.0	128.0	4436619.0	135394.86694335938	0.6638795928811542	9205.0	
56.75178846738201	786890.0	128.0	128.0	4436651.0	135395.84350585938	0.6732554046220071	9335.0	
56.74024900677789	786730.0	128.0	128.0	4436683.0	135396.82006835938	0.6678462824638227	9260.0	
56.66740616171434	785720.0	128.0	128.0	4436715.0	135397.79663085938	0.6595522951546068	9145.0	
56.737724749770734	786695.0	128.0	128.0	4436747.0	135398.77319335938	0.6519795241331487	9040.0	
56.7709006990076	787155.0	128.0	128.0	4436779.0	135399.74975585938	0.6487340508382381	8995.0	
56.768015833856566	787115.0	128.0	128.0	4436811.0	135400.72631835938	0.6447673612555697	8940.0	
56.75755819768408	786970.0	128.0	128.0	4436843.0	135401.70288085938	0.6476522264066013	8980.0	
56.672454675728645	785790.0	128.0	128.0	4436875.0	135402.67944335938	0.6530613485647856	9055.0	
56.764770360561656	787070.0	128.0	128.0	4436907.0	135403.65600585938	0.6404400635290222	8880.0	
56.71284278784309	786350.0	128.0	128.0	4436939.0	135404.63256835938	0.6361127658024748	8820.0	
56.71500643670636	786380.0	128.0	128.0	4436971.0	135405.60913085938	0.6418824961045381	8900.0	
56.72943076246152	786580.0	128.0	128.0	4437003.0	135406.58569335938	0.658109862579091	9125.0	
56.713564004130845	786360.0	128.0	128.0	4437035.0	135407.56225585938	0.6714523639026122	9310.0	
56.76080367097899	787015.0	128.0	128.0	4437067.0	135408.53881835938	0.6779433104924334	9400.0	
56.7348398846197	786655.0	128.0	128.0	4437099.0	135409.51538085938	0.6667644580321859	9245.0	
56.69517298879302	786105.0	128.0	128.0	4437131.0	135410.49194335938	0.6635189847372752	9200.0	
56.655506092966334	785555.0	128.0	128.0	4437163.0	135411.46850585938	0.6801069593557071	9430.0	
56.659472782549	785610.0	128.0	128.0	4437195.0	135412.44506835938	0.6865979059455283	9520.0	
56.60321791210389	784830.0	128.0	128.0	4437227.0	135413.42163085938	0.6992191909812917	9695.0	
56.61980588672232	785060.0	128.0	128.0	4437259.0	135414.39819335938	0.6984979746935338	9685.0	
56.68471535262053	785960.0	128.0	128.0	4437291.0	135415.37475585938	0.697416150261897	9670.0	
56.70599123310939	786255.0	128.0	128.0	4437323.0	135416.35131835938	0.7006616235568075	9715.0	
56.761524887266745	787025.0	128.0	128.0	4437355.0	135417.32788085938	0.6927282443914705	9605.0	
56.76549157684941	787080.0	128.0	128.0	4437387.0	135418.30444335938	0.6905645955281968	9575.0	
56.668487986145976	785735.0	128.0	128.0	4437419.0	135419.28100585938	0.6768614860607965	9385.0	
56.775588604878024	787220.0	128.0	128.0	4437451.0	135420.25756835938	0.6653220254566701	9225.0	
56.76693400942493	787100.0	128.0	128.0	4437483.0	135421.23413085938	0.6653220254566701	9225.0	
56.72870954617376	786570.0	128.0	128.0	4437515.0	135422.21069335938	0.6620765521617594	9180.0	
56.74313387192892	786770.0	128.0	128.0	4437547.0	135423.18725585938	0.6664038498883069	9240.0	
56.71969434257679	786445.0	128.0	128.0	4437579.0	135424.16381835938	0.6700099313270964	9290.0	
56.76657340128105	787095.0	128.0	128.0	4437611.0	135425.14038085938	0.6678462824638227	9260.0	
56.816337325136345	787785.0	128.0	128.0	4437643.0	135426.11694335938	0.6801069593557071	9430.0	
56.744576304504434	786790.0	128.0	128.0	4437675.0	135427.09350585938	0.6941706769669863	9625.0	
56.6886820422032	786015.0	128.0	128.0	4437707.0	135428.07006835938	0.7010222317006864	9720.0	
56.806240297107735	787645.0	128.0	128.0	4437739.0	135429.04663085938	0.7374436542324608	10225.0	
56.751427859238134	786885.0	128.0	128.0	4437771.0	135430.02319335938	0.7821590640734511	10845.0	
56.79686448536688	787515.0	128.0	128.0	4437803.0	135430.99975585938	0.8099258911521305	11230.0	
56.78820988991379	787395.0	128.0	128.0	4437835.0	135431.97631835938	0.8355290693675362	11585.0	
56.816697933280224	787790.0	128.0	128.0	4437867.0	135432.95288085938	0.8571655580002735	11885.0	
56.73700353348298	786685.0	128.0	128.0	4437899.0	135433.92944335938	0.8715898837554317	12085.0	
56.77811286188518	787255.0	128.0	128.0	4437931.0	135434.90600585938	0.8719504918993106	12090.0	
56.77991590260457	787280.0	128.0	128.0	4437963.0	135435.88256835938	0.8719504918993106	12090.0	
56.72149738329618	786470.0	128.0	128.0	4437995.0	135436.85913085938	0.8647383290217315	11990.0	
56.717170085569634	786410.0	128.0	128.0	4438027.0	135437.83569335938	0.8654595453094894	12000.0	
56.76729461756881	787105.0	128.0	128.0	4438059.0	135438.81225585938	0.8640171127339736	11980.0	
56.819582798431256	787830.0	128.0	128.0	4438091.0	135439.78881835938	0.8506746114104523	11795.0	
56.77703103745354	787240.0	128.0	128.0	4438123.0	135440.76538085938	0.8503140032665734	11790.0	
56.77414617230251	787200.0	128.0	128.0	4438155.0	135441.74194335938	0.8517564358420893	11810.0	
56.782440159611724	787315.0	128.0	128.0	4438187.0	135442.71850585938	0.8636565045900947	11975.0	
56.83436773233029	788035.0	128.0	128.0	4438219.0	135443.69506835938	0.8777202222013739	12170.0	
56.82787678574047	787945.0	128.0	128.0	4438251.0	135444.67163085938	0.8878172502299846	12310.0	
56.827155569452714	787935.0	128.0	128.0	4438283.0	135445.64819335938	0.8989961026902322	12465.0	
56.82463131244556	787900.0	128.0	128.0	4438315.0	135446.62475585938	0.9173871180280588	12720.0	
56.76296731984226	787045.0	128.0	128.0	4438347.0	135447.60131835938	0.9354175252220065	12970.0	
56.85275874766812	788290.0	128.0	128.0	4438379.0	135448.57788085938	0.9689540826027493	13435.0	
56.74565812893607	786805.0	128.0	128.0	4438411.0	135449.55444335938	0.9815753676385126	13610.0	
56.83869503005684	788095.0	128.0	128.0	4438443.0	135450.53100585938	0.9848208409334233	13655.0	
56.840858678920114	788125.0	128.0	128.0	4438475.0	135451.50756835938	0.9985239504008234	13845.0	
56.84662840922218	788205.0	128.0	128.0	4438507.0	135452.48413085938	1.042157535810177	14450.0	
56.84266171963951	788150.0	128.0	128.0	4438539.0	135453.46069335938	1.0836274723562567	15025.0	
56.78424320033112	787340.0	128.0	128.0	4438571.0	135454.43725585938	1.097330581823657	15215.0	
56.813091851841435	787740.0	128.0	128.0	4438603.0	135455.41381835938	1.1211307193196678	15545.0	
56.77054009086372	787150.0	128.0	128.0	4438635.0	135456.39038085938	1.1380793020819786	15780.0	
56.80732212153937	787660.0	128.0	128.0	4438667.0	135457.36694335938	1.1463732893911946	15895.0	
56.80443725638834	787620.0	128.0	128.0	4438699.0	135458.34350585938	1.1467338975350736	15900.0	
56.799749350517914	787555.0	128.0	128.0	4438731.0	135459.32006835938	1.142406599808526	15840.0	
56.77703103745354	787240.0	128.0	128.0	4438763.0	135460.29663085938	1.157912749995321	16055.0	
56.659112174405124	785605.0	128.0	128.0	4438795.0	135461.27319335938	1.18243410377909	16395.0	
56.75395211624529	786920.0	128.0	128.0	4438827.0	135462.24975585938	1.1943341725270955	16560.0	
56.67137285129701	785775.0	128.0	128.0	4438859.0	135463.22631835938	1.2091191064261326	16765.0	
56.796503877223	787510.0	128.0	128.0	4438891.0	135464.20288085938	1.228952554339475	17040.0	
56.720054950720666	786450.0	128.0	128.0	4438923.0	135465.17944335938	1.25131025925997	17350.0	
56.72546407287885	786525.0	128.0	128.0	4438955.0	135466.15600585938	1.2790770863386496	17735.0	
56.816697933280224	787790.0	128.0	128.0	4438987.0	135467.13256835938	1.315498508870424	18240.0	
56.72438224844721	786510.0	128.0	128.0	4439019.0	135468.10913085938	1.332086483488856	18470.0	
56.778473470029056	787260.0	128.0	128.0	4439051.0	135469.08569335938	1.3796867584808779	19130.0	
56.713203395986966	786355.0	128.0	128.0	4439083.0	135470.06225585938	1.4114202751422258	19570.0	
56.79686448536688	787515.0	128.0	128.0	4439115.0	135471.03881835938	1.4536114279760632	20155.0	
56.806600905251614	787650.0	128.0	128.0	4439147.0	135472.01538085938	1.503375351831359	20845.0	
56.77234313158311	787175.0	128.0	128.0	4439179.0	135472.99194335938	1.5329452196294333	21255.0	
56.81525550070471	787770.0	128.0	128.0	4439211.0	135473.96850585938	1.5646787362907812	21695.0	
56.7640491442739	787060.0	128.0	128.0	4439243.0	135474.94506835938	1.5834303597724868	21955.0	
56.76765522571269	787110.0	128.0	128.0	4439275.0	135475.92163085938	1.6212942148797769	22480.0	
56.78712806548215	787380.0	128.0	128.0	4439307.0	135476.89819335938	1.629227594045114	22590.0	
56.730873195037034	786600.0	128.0	128.0	4439339.0	135477.87475585938	1.6252609044624455	22535.0	
56.80479786453222	787625.0	128.0	128.0	4439371.0	135478.85131835938	1.6223760393114137	22495.0	
56.8188615821435	787820.0	128.0	128.0	4439403.0	135479.82788085938	1.6108365787072874	22335.0	
56.786046241050514	787365.0	128.0	128.0	4439435.0	135480.80444335938	1.619851782304261	22460.0	
56.81128881112204	787715.0	128.0	128.0	4439467.0	135481.78100585938	1.6230972555991716	22505.0	
56.77955529446069	787275.0	128.0	128.0	4439499.0	135482.75756835938	1.629588202188993	22595.0	
56.81381306812919	787750.0	128.0	128.0	4439531.0	135483.73413085938	1.6562732048360356	22965.0	
56.724021640303334	786505.0	128.0	128.0	4439563.0	135484.71069335938	1.6869248970657464	23390.0	
56.813452459985314	787745.0	128.0	128.0	4439595.0	135485.68725585938	1.6944976680872046	23495.0	
56.82210705543841	787865.0	128.0	128.0	4439627.0	135486.66381835938	1.713970507856668	23765.0	
56.809846378546524	787695.0	128.0	128.0	4439659.0	135487.64038085938	1.7334433476261315	24035.0	
56.78676745733827	787375.0	128.0	128.0	4439691.0	135488.61694335938	1.7359676046332844	24070.0	
56.8051584726761	787630.0	128.0	128.0	4439723.0	135489.59350585938	1.7500313222445636	24265.0	
56.799749350517914	787555.0	128.0	128.0	4439755.0	135490.57006835938	1.7666192968629955	24495.0	
56.80696151339549	787655.0	128.0	128.0	4439787.0	135491.54663085938	1.7842890959130642	24740.0	
56.796503877223	787510.0	128.0	128.0	4439819.0	135492.52319335938	1.7965497728049487	24910.0	
56.80191299938119	787585.0	128.0	128.0	4439851.0	135493.49975585938	1.8062861926896803	25045.0	
56.84230111149563	788145.0	128.0	128.0	4439883.0	135494.47631835938	1.817465045149928	25200.0	
56.82102523100677	787850.0	128.0	128.0	4439915.0	135495.45288085938	1.823955991739749	25290.0	
56.82607374502108	787920.0	128.0	128.0	4439947.0	135496.42944335938	1.8225135591642332	25270.0	
56.79397962021585	787475.0	128.0	128.0	4439979.0	135497.40600585938	1.8253984243152648	25310.0	
56.80876455411489	787680.0	128.0	128.0	4440011.0	135498.38256835938	1.8156620044305332	25175.0	
56.75250968366977	786900.0	128.0	128.0	4440043.0	135499.35913085938	1.8106134904162277	25105.0	
56.80732212153937	787660.0	128.0	128.0	4440075.0	135500.33569335938	1.808810449696833	25080.0	
56.823188879870045	787880.0	128.0	128.0	4440107.0	135501.31225585938	1.808449841552954	25075.0	
56.785325024762756	787355.0	128.0	128.0	4440139.0	135502.28881835938	1.8044831519702855	25020.0	
56.8394162463446	788105.0	128.0	128.0	4440171.0	135503.26538085938	1.8199893021570805	25235.0	
56.802634215668945	787595.0	128.0	128.0	4440203.0	135504.24194335938	1.8304469383295703	25380.0	
56.795422052791366	787495.0	128.0	128.0	4440235.0	135505.21850585938	1.8409045745020598	25525.0	
56.843743544071145	788165.0	128.0	128.0	4440267.0	135506.19506835938	1.8592955898398866	25780.0	
56.76657340128105	787095.0	128.0	128.0	4440299.0	135507.17163085938	1.8679501852929814	25900.0	
56.747461169655466	786830.0	128.0	128.0	4440331.0	135508.14819335938	1.885980592486929	26150.0	
56.768376442000445	787120.0	128.0	128.0	4440363.0	135509.12475585938	1.8960776205155399	26290.0	
56.74313387192892	786770.0	128.0	128.0	4440395.0	135510.10131835938	1.9123049869900928	26515.0	
56.72221859958394	786480.0	128.0	128.0	4440427.0	135511.07788085938	1.9353839081983457	26835.0	
56.67353650016028	785805.0	128.0	128.0	4440459.0	135512.05444335938	1.9671174248596939	27275.0	
56.724021640303334	786505.0	128.0	128.0	4440491.0	135513.03100585938	1.9829841831903678	27495.0	
56.809846378546524	787695.0	128.0	128.0	4440523.0	135514.00756835938	2.013635875420079	27920.0	
56.78352198404336	787330.0	128.0	128.0	4440555.0	135514.98413085938	2.0359935803405738	28230.0	
56.7485429940871	786845.0	128.0	128.0	4440587.0	135515.96069335938	2.0601543259804638	28565.0	
56.80010995866179	787560.0	128.0	128.0	4440619.0	135516.93725585938	2.0882817612030222	28955.0	
56.75395211624529	786920.0	128.0	128.0	4440651.0	135517.91381835938	2.1189334534327333	29380.0	
56.7571975895402	786965.0	128.0	128.0	4440683.0	135518.89038085938	2.145618456079776	29750.0	
56.81237063555368	787730.0	128.0	128.0	4440715.0	135519.86694335938	2.1679761610002712	30060.0	
56.761164279122866	787020.0	128.0	128.0	4440747.0	135520.84350585938	2.1964642043667086	30455.0	
56.76332792798614	787050.0	128.0	128.0	4440779.0	135521.82006835938	2.220985558150477	30795.0	
56.809846378546524	787695.0	128.0	128.0	4440811.0	135522.79663085938	2.2512766422363093	31215.0	
56.83797381376908	788085.0	128.0	128.0	4440843.0	135523.77319335938	2.2747161715884414	31540.0	
56.809485770402645	787690.0	128.0	128.0	4440875.0	135524.74975585938	2.2959920520773	31835.0	
56.799749350517914	787555.0	128.0	128.0	4440907.0	135525.72631835938	2.3136618511273683	32080.0	
56.802273607525066	787590.0	128.0	128.0	4440939.0	135526.70288085938	2.3349377316162268	32375.0	
56.79397962021585	787475.0	128.0	128.0	4440971.0	135527.67944335938	2.347198408508111	32545.0	
56.806600905251614	787650.0	128.0	128.0	4441003.0	135528.65600585938	2.35801665282448	32695.0	
56.76008245469123	787005.0	128.0	128.0	4441035.0	135529.63256835938	2.3688348971408484	32845.0	
56.86177395126509	788415.0	128.0	128.0	4441067.0	135530.60913085938	2.3800137496010962	33000.0	
56.83617077304969	788060.0	128.0	128.0	4441099.0	135531.58569335938	2.4077805766797753	33385.0	
56.76440975241778	787065.0	128.0	128.0	4441131.0	135532.56225585938	2.4308594978880285	33705.0	
56.840858678920114	788125.0	128.0	128.0	4441163.0	135533.53881835938	2.4463656480748237	33920.0	
56.8376132056252	788080.0	128.0	128.0	4441195.0	135534.51538085938	2.449971729513613	33970.0	
56.796143269079124	787505.0	128.0	128.0	4441227.0	135535.49194335938	2.458986933110587	34095.0	
56.87619827702025	788615.0	128.0	128.0	4441259.0	135536.46850585938	2.4539384190962816	34025.0	
56.82138583915065	787855.0	128.0	128.0	4441291.0	135537.44506835938	2.44420199921155	33890.0	
56.85492239653139	788320.0	128.0	128.0	4441323.0	135538.42163085938	2.426171592017602	33640.0	
56.747821777799345	786835.0	128.0	128.0	4441355.0	135539.39819335938	2.4146321314134758	33480.0	
56.826794961308835	787930.0	128.0	128.0	4441387.0	135540.37475585938	2.3991259812266805	33265.0	
56.81561610884859	787775.0	128.0	128.0	4441419.0	135541.35131835938	2.39588050793177	33220.0	
56.78640684919439	787370.0	128.0	128.0	4441451.0	135542.32788085938	2.3984047649389226	33255.0	
56.76729461756881	787105.0	128.0	128.0	4441483.0	135543.30444335938	2.38902895319807	33125.0	
56.844104152215024	788170.0	128.0	128.0	4441515.0	135544.28100585938	2.356574220248964	32675.0	
56.76260671169838	787040.0	128.0	128.0	4441547.0	135545.25756835938	2.3486408410836273	32565.0	
56.77667042930966	787235.0	128.0	128.0	4441579.0	135546.23413085938	2.349362057371385	32575.0	
56.86646185713552	788480.0	128.0	128.0	4441611.0	135547.21069335938	2.345755975932595	32525.0	
56.76585218499329	787085.0	128.0	128.0	4441643.0	135548.18725585938	2.3522469225224167	32615.0	
56.82102523100677	787850.0	128.0	128.0	4441675.0	135549.16381835938	2.3681136808530905	32835.0	
56.81850097399962	787815.0	128.0	128.0	4441707.0	135550.14038085938	2.3767682763061853	32955.0	
56.87655888516413	788620.0	128.0	128.0	4441739.0	135551.11694335938	2.4066987522481385	33370.0	
56.7983069179424	787535.0	128.0	128.0	4441771.0	135552.09350585938	2.427253416449239	33655.0	
56.843743544071145	788165.0	128.0	128.0	4441803.0	135553.07006835938	2.444923215499308	33900.0	
56.86177395126509	788415.0	128.0	128.0	4441835.0	135554.04663085938	2.4553808516717974	34045.0	
56.86538003270388	788465.0	128.0	128.0	4441867.0	135555.02319335938	2.4532172028085237	34015.0	
56.87042854671819	788535.0	128.0	128.0	4441899.0	135555.99975585938	2.4557414598156764	34050.0	
56.81850097399962	787815.0	128.0	128.0	4441931.0	135556.97631835938	2.445283823643187	33905.0	
56.80804333782713	787670.0	128.0	128.0	4441963.0	135557.95288085938	2.4301382816002706	33695.0	
56.80876455411489	787680.0	128.0	128.0	4441995.0	135558.92944335938	2.4113866581185652	33435.0	
56.70166393538284	786195.0	128.0	128.0	4442027.0	135559.90600585938	2.3854228717592805	33075.0	
56.70202454352672	786200.0	128.0	128.0	4442059.0	135560.88256835938	2.388307736910312	33115.0	
56.6731758920164	785800.0	128.0	128.0	4442091.0	135561.85913085938	2.395159291644012	33210.0	
56.67353650016028	785805.0	128.0	128.0	4442123.0	135562.83569335938	2.396962332363407	33235.0	
56.788570498057666	787400.0	128.0	128.0	4442155.0	135563.81225585938	2.3980441567950437	33250.0	
56.74962481851874	786860.0	128.0	128.0	4442187.0	135564.78881835938	2.3984047649389226	33255.0	
56.76368853613002	787055.0	128.0	128.0	4442219.0	135565.76538085938	2.4070593603920174	33375.0	
56.77234313158311	787175.0	128.0	128.0	4442251.0	135566.74194335938	2.401289630089954	33295.0	
56.75359150810141	786915.0	128.0	128.0	4442283.0	135567.71850585938	2.40273206266547	33315.0	
56.73988839863401	786725.0	128.0	128.0	4442315.0	135568.69506835938	2.401289630089954	33295.0	
56.778473470029056	787260.0	128.0	128.0	4442347.0	135569.67163085938	2.403092670809349	33320.0	
56.77991590260457	787280.0	128.0	128.0	4442379.0	135570.64819335938	2.3991259812266805	33265.0	
56.80840394597101	787675.0	128.0	128.0	4442411.0	135571.62475585938	2.414271523269597	33475.0	
56.86538003270388	788465.0	128.0	128.0	4442443.0	135572.60131835938	2.418959429140023	33540.0	
56.847710233653814	788220.0	128.0	128.0	4442475.0	135573.57788085938	2.4250897675859653	33625.0	
56.75647637325244	786955.0	128.0	128.0	4442507.0	135574.55444335938	2.426171592017602	33640.0	
56.79361901207197	787470.0	128.0	128.0	4442539.0	135575.53100585938	2.418598820996144	33535.0	
56.795782660935245	787500.0	128.0	128.0	4442571.0	135576.50756835938	2.4066987522481385	33370.0	
56.754312724389166	786925.0	128.0	128.0	4442603.0	135577.48413085938	2.3792925333133383	32990.0	
56.84157989520787	788135.0	128.0	128.0	4442635.0	135578.46069335938	2.3558530039612062	32665.0	
56.80371604010058	787610.0	128.0	128.0	4442667.0	135579.43725585938	2.339265029342774	32435.0	
56.796503877223	787510.0	128.0	128.0	4442699.0	135580.41381835938	2.3143830674151262	32090.0	
56.764770360561656	787070.0	128.0	128.0	4442731.0	135581.39038085938	2.3096951615447	32025.0	
56.81164941926592	787720.0	128.0	128.0	4442763.0	135582.36694335938	2.3035648230987578	31940.0	
56.740609614921766	786735.0	128.0	128.0	4442795.0	135583.34350585938	2.2992375253722104	31880.0	
56.81525550070471	787770.0	128.0	128.0	4442827.0	135584.32006835938	2.2808465100343835	31625.0	
56.757918805827956	786975.0	128.0	128.0	4442859.0	135585.29663085938	2.2739949553006835	31530.0	
56.80155239123731	787580.0	128.0	128.0	4442891.0	135586.27319335938	2.2678646168547414	31445.0	
56.80191299938119	787585.0	128.0	128.0	4442923.0	135587.24975585938	2.263176710984315	31380.0	
56.815976716992466	787780.0	128.0	128.0	4442955.0	135588.22631835938	2.2483917770852777	31175.0	
56.8051584726761	787630.0	128.0	128.0	4442987.0	135589.20288085938	2.247309952653641	31160.0	
56.79434022835973	787480.0	128.0	128.0	4443019.0	135590.17944335938	2.2343280594739987	30980.0	
56.80371604010058	787610.0	128.0	128.0	4443051.0	135591.15600585938	2.238655357200546	31040.0	
56.79758570165464	787525.0	128.0	128.0	4443083.0	135592.13256835938	2.2429826549270935	31100.0	
56.79506144464749	787490.0	128.0	128.0	4443115.0	135593.10913085938	2.2422614386393356	31090.0	
56.79866752608628	787540.0	128.0	128.0	4443147.0	135594.08569335938	2.239737181632183	31055.0	
56.78712806548215	787380.0	128.0	128.0	4443179.0	135595.06225585938	2.233246235042362	30965.0	
56.78316137589948	787325.0	128.0	128.0	4443211.0	135596.03881835938	2.2235098151576302	30830.0	
56.8120100274098	787725.0	128.0	128.0	4443243.0	135597.01538085938	2.2033157591004087	30550.0	
56.79037353877706	787425.0	128.0	128.0	4443275.0	135597.99194335938	2.184924743762582	30295.0	
56.76080367097899	787015.0	128.0	128.0	4443307.0	135598.96850585938	2.1650912958492396	30020.0	
56.81525550070471	787770.0	128.0	128.0	4443339.0	135599.94506835938	2.1477821049430497	29780.0	
56.74637934522383	786815.0	128.0	128.0	4443371.0	135600.92163085938	2.1474214967991707	29775.0	
56.76368853613002	787055.0	128.0	128.0	4443403.0	135601.89819335938	2.132636562900134	29570.0	
56.784603808475	787345.0	128.0	128.0	4443435.0	135602.87475585938	2.127588048885828	29500.0	
56.8102069866904	787700.0	128.0	128.0	4443467.0	135603.85131835938	2.1229001430154018	29435.0	
56.80010995866179	787560.0	128.0	128.0	4443499.0	135604.82788085938	2.1185728452888544	29375.0	
56.72474285659109	786515.0	128.0	128.0	4443531.0	135605.80444335938	2.105590952109212	29195.0	
56.80696151339549	787655.0	128.0	128.0	4443563.0	135606.78100585938	2.083233247188717	28885.0	
56.802273607525066	787590.0	128.0	128.0	4443595.0	135607.75756835938	2.0713331784407116	28720.0	
56.700221502807324	786175.0	128.0	128.0	4443627.0	135608.73413085938	2.067005880714164	28660.0	
56.741330831209524	786745.0	128.0	128.0	4443659.0	135609.71069335938	2.0630391911314954	28605.0	
56.72257920772782	786485.0	128.0	128.0	4443691.0	135610.68725585938	2.068808921433559	28685.0	
56.66993041872149	785755.0	128.0	128.0	4443723.0	135611.66381835938	2.0792665576060485	28830.0	
56.73628231719522	786675.0	128.0	128.0	4443755.0	135612.64038085938	2.0871999367713854	28940.0	
56.72907015431764	786575.0	128.0	128.0	4443787.0	135613.61694335938	2.090445410066296	28985.0	
56.72834893802988	786565.0	128.0	128.0	4443819.0	135614.59350585938	2.099100005519391	29105.0	
56.72582468102273	786530.0	128.0	128.0	4443851.0	135615.57006835938	2.090445410066296	28985.0	
56.69192751549811	786060.0	128.0	128.0	4443883.0	135616.54663085938	2.077102908742775	28800.0	
56.73556110090746	786665.0	128.0	128.0	4443915.0	135617.52319335938	2.0533027712467637	28470.0	
56.782079551467845	787310.0	128.0	128.0	4443947.0	135618.49975585938	2.0320268907579053	28175.0	
56.72834893802988	786565.0	128.0	128.0	4443979.0	135619.47631835938	2.0111116184129263	27885.0	
56.80155239123731	787580.0	128.0	128.0	4444011.0	135620.45288085938	2.002457022959831	27765.0	
56.72943076246152	786580.0	128.0	128.0	4444043.0	135621.42944335938	1.995605468226131	27670.0	
56.79794630979852	787530.0	128.0	128.0	4444075.0	135622.40600585938	1.9919993867873416	27620.0	
56.76981887457596	787140.0	128.0	128.0	4444107.0	135623.38256835938	1.9829841831903678	27495.0	
56.747821777799345	786835.0	128.0	128.0	4444139.0	135624.35913085938	1.9689204655790886	27300.0	
56.8376132056252	788080.0	128.0	128.0	4444171.0	135625.33569335938	1.9602658701259936	27180.0	
56.75359150810141	786915.0	128.0	128.0	4444203.0	135626.31225585938	1.95810222126272	27150.0	
56.80768272968325	787665.0	128.0	128.0	4444235.0	135627.28881835938	1.9505294502412618	27045.0	
56.789291714345424	787410.0	128.0	128.0	4444267.0	135628.26538085938	1.942596071075925	26935.0	
56.77630982116578	787230.0	128.0	128.0	4444299.0	135629.24194335938	1.9364657326299828	26850.0	
56.72510346473497	786520.0	128.0	128.0	4444331.0	135630.21850585938	1.9353839081983457	26835.0	
56.7348398846197	786655.0	128.0	128.0	4444363.0	135631.19506835938	1.9404324222126512	26905.0	
56.806600905251614	787650.0	128.0	128.0	4444395.0	135632.17163085938	1.942596071075925	26935.0	
56.75178846738201	786890.0	128.0	128.0	4444427.0	135633.14819335938	1.9472839769463512	27000.0	
56.76585218499329	787085.0	128.0	128.0	4444459.0	135634.12475585938	1.942235462932046	26930.0	
56.82751617759659	787940.0	128.0	128.0	4444491.0	135635.10131835938	1.9306960023279194	26770.0	
56.69156690735423	786055.0	128.0	128.0	4444523.0	135636.07788085938	1.9249262720258562	26690.0	
56.70454880053387	786235.0	128.0	128.0	4444555.0	135637.05444335938	1.9054534322563927	26420.0	
56.77739164559742	787245.0	128.0	128.0	4444587.0	135638.03100585938	1.887062416918566	26165.0	
56.75250968366977	786900.0	128.0	128.0	4444619.0	135639.00756835938	1.870113834156255	25930.0	
56.70815488197266	786285.0	128.0	128.0	4444651.0	135639.98413085938	1.8542470758255811	25710.0	
56.80443725638834	787620.0	128.0	128.0	4444683.0	135640.96069335938	1.8517228188184285	25675.0	
56.679306230462345	785885.0	128.0	128.0	4444715.0	135641.93725585938	1.840183358214302	25515.0	
56.78388259218724	787335.0	128.0	128.0	4444747.0	135642.91381835938	1.832971195336723	25415.0	
56.740609614921766	786735.0	128.0	128.0	4444779.0	135643.89038085938	1.8308075464734492	25385.0	
56.79686448536688	787515.0	128.0	128.0	4444811.0	135644.86694335938	1.8362166686316335	25460.0	
56.75683698139632	786960.0	128.0	128.0	4444843.0	135645.84350585938	1.832249979048965	25405.0	
56.700221502807324	786175.0	128.0	128.0	4444875.0	135646.82006835938	1.8315287627612071	25395.0	
56.73880657420237	786710.0	128.0	128.0	4444907.0	135647.79663085938	1.8344136279122387	25435.0	
56.695894205080776	786115.0	128.0	128.0	4444939.0	135648.77319335938	1.8372984930632703	25475.0	
56.782079551467845	787310.0	128.0	128.0	4444971.0	135649.74975585938	1.8362166686316335	25460.0	
56.67137285129701	785775.0	128.0	128.0	4445003.0	135650.72631835938	1.8405439663581808	25520.0	
56.7640491442739	787060.0	128.0	128.0	4445035.0	135651.70288085938	1.848477345523518	25630.0	
56.6526212278153	785515.0	128.0	128.0	4445067.0	135652.67944335938	1.8621804549909182	25820.0	
56.740970223065645	786740.0	128.0	128.0	4445099.0	135653.65600585938	1.8621804549909182	25820.0	
56.71969434257679	786445.0	128.0	128.0	4445131.0	135654.63256835938	1.854968292113339	25720.0	
56.71897312628903	786435.0	128.0	128.0	4445163.0	135655.60913085938	1.8499197780990337	25650.0	
56.74962481851874	786860.0	128.0	128.0	4445195.0	135656.58569335938	1.839462141926544	25505.0	
56.72330042401558	786495.0	128.0	128.0	4445227.0	135657.56225585938	1.8272014650346597	25335.0	
56.7366429253391	786680.0	128.0	128.0	4445259.0	135658.53881835938	1.8102528822723487	25100.0	
56.597087573657944	784745.0	128.0	128.0	4445291.0	135659.51538085938	1.8001558542437381	24960.0	
56.6115118994131	784945.0	128.0	128.0	4445323.0	135660.49194335938	1.7979922053804644	24930.0	
56.64360602421833	785390.0	128.0	128.0	4445355.0	135661.46850585938	1.7954679483733116	24895.0	
56.528572026320944	783795.0	128.0	128.0	4445387.0	135662.44506835938	1.79258308322228	24855.0	
56.68832143405932	786010.0	128.0	128.0	4445419.0	135663.42163085938	1.7832072714814273	24725.0	
56.641081767211176	785355.0	128.0	128.0	4445451.0	135664.39819335938	1.7792405818987587	24670.0	
56.696615421368534	786125.0	128.0	128.0	4445483.0	135665.37475585938	1.776355716747727	24630.0	
56.634230212477476	785260.0	128.0	128.0	4445515.0	135666.35131835938	1.7799617981865166	24680.0	
56.62918169846317	785190.0	128.0	128.0	4445547.0	135667.32788085938	1.7709465945895428	24555.0	
56.60934825054983	784915.0	128.0	128.0	4445579.0	135668.30444335938	1.7752738923160902	24615.0	
56.693009339929745	786075.0	128.0	128.0	4445611.0	135669.28100585938	1.7756345004599692	24620.0	
56.69805785394405	786145.0	128.0	128.0	4445643.0	135670.25756835938	1.7687829457262692	24525.0	
56.69805785394405	786145.0	128.0	128.0	4445675.0	135671.23413085938	1.7821254470497905	24710.0	
56.66307886398779	785660.0	128.0	128.0	4445707.0	135672.21069335938	1.7896982180712484	24815.0	
56.573287436161934	784415.0	128.0	128.0	4445739.0	135673.18725585938	1.7976315972365855	24925.0	
56.665242512851066	785690.0	128.0	128.0	4445771.0	135674.16381835938	1.801237678675375	24975.0	
56.66956981057761	785750.0	128.0	128.0	4445803.0	135675.14038085938	1.8030407193947697	25000.0	
56.64901514637651	785465.0	128.0	128.0	4445835.0	135676.11694335938	1.791861866934522	24845.0	
56.686157785196045	785980.0	128.0	128.0	4445867.0	135677.09350585938	1.785010312200822	24750.0	
56.61872406229068	785045.0	128.0	128.0	4445899.0	135678.07006835938	1.777437541179364	24645.0	
56.71861251814515	786430.0	128.0	128.0	4445931.0	135679.04663085938	1.7529161873955952	24305.0	
56.64036055092342	785345.0	128.0	128.0	4445963.0	135680.02319335938	1.7413767267914686	24145.0	
56.68327292004501	785940.0	128.0	128.0	4445995.0	135680.99975585938	1.7410161186475896	24140.0	
56.59456331665079	784710.0	128.0	128.0	4446027.0	135681.97631835938	1.7370494290649212	24085.0	
56.63675446948463	785295.0	128.0	128.0	4446059.0	135682.95288085938	1.7420979430792265	24155.0	
56.703466976102234	786220.0	128.0	128.0	4446091.0	135683.92944335938	1.7413767267914686	24145.0	
56.56679648957211	784325.0	128.0	128.0	4446123.0	135684.90600585938	1.7406555105037107	24135.0	
56.655506092966334	785555.0	128.0	128.0	4446155.0	135685.88256835938	1.7399342942159528	24125.0	
56.66307886398779	785660.0	128.0	128.0	4446187.0	135686.85913085938	1.7514737548200794	24285.0	
56.579417774607876	784500.0	128.0	128.0	4446219.0	135687.83569335938	1.769143553870148	24530.0	
56.552372163816955	784125.0	128.0	128.0	4446251.0	135688.81225585938	1.760488958417053	24410.0	
56.638196902060145	785315.0	128.0	128.0	4446283.0	135689.78881835938	1.7644556479997215	24465.0	
56.62485440073662	785130.0	128.0	128.0	4446315.0	135690.76538085938	1.7583253095537794	24380.0	
56.62557561702438	785140.0	128.0	128.0	4446347.0	135691.74194335938	1.776716324891606	24635.0	
56.53758722991792	783920.0	128.0	128.0	4446379.0	135692.71850585938	1.7875345692079747	24785.0	
56.62557561702438	785140.0	128.0	128.0	4446411.0	135693.69506835938	1.7864527447763379	24770.0	
56.631345347326445	785220.0	128.0	128.0	4446443.0	135694.67163085938	1.7893376099273695	24810.0	
56.58266324790279	784545.0	128.0	128.0	4446475.0	135695.64819335938	1.7752738923160902	24615.0	
56.599972438808976	784785.0	128.0	128.0	4446507.0	135696.62475585938	1.761931390992569	24430.0	
56.624133184448866	785120.0	128.0	128.0	4446539.0	135697.60131835938	1.744982808230258	24195.0	
56.56319040813332	784275.0	128.0	128.0	4446571.0	135698.57788085938	1.7262311847485525	23935.0	
56.644687848649966	785405.0	128.0	128.0	4446603.0	135699.55444335938	1.7082007775546049	23685.0	
56.589875410780365	784645.0	128.0	128.0	4446635.0	135700.53100585938	1.7053159124035733	23645.0	
56.641081767211176	785355.0	128.0	128.0	4446667.0	135701.50756835938	1.698824965813752	23555.0	
56.60285730396001	784825.0	128.0	128.0	4446699.0	135702.48413085938	1.6898097622167783	23430.0	
56.63062413103869	785210.0	128.0	128.0	4446731.0	135703.46069335938	1.6869248970657464	23390.0	
56.58482689676606	784575.0	128.0	128.0	4446763.0	135704.43725585938	1.6703369224473146	23160.0	
56.597087573657944	784745.0	128.0	128.0	4446795.0	135705.41381835938	1.6624035432819777	23050.0	
56.593481492219155	784695.0	128.0	128.0	4446827.0	135706.39038085938	1.6656490165768882	23095.0	
56.60249669581613	784820.0	128.0	128.0	4446859.0	135707.36694335938	1.6544701641166406	22940.0	
56.522441687875	783710.0	128.0	128.0	4446891.0	135708.34350585938	1.6465367849513037	22830.0	
56.50260823996166	783435.0	128.0	128.0	4446923.0	135709.32006835938	1.652306515253367	22910.0	
56.51631134942906	783625.0	128.0	128.0	4446955.0	135710.29663085938	1.6595186781309461	23010.0	
56.49936276666675	783390.0	128.0	128.0	4446987.0	135711.27319335938	1.6743036120299832	23215.0	
56.45825343826454	782820.0	128.0	128.0	4447019.0	135712.24975585938	1.6779096934687727	23265.0	
56.497199117803476	783360.0	128.0	128.0	4447051.0	135713.22631835938	1.6851218563463517	23365.0	
56.52893263446482	783800.0	128.0	128.0	4447083.0	135714.20288085938	1.683318815626957	23340.0	
56.48854452235038	783240.0	128.0	128.0	4447115.0	135715.17944335938	1.6721399631667095	23185.0	
56.538669054349555	783935.0	128.0	128.0	4447147.0	135716.15600585938	1.6613217188503409	23035.0	
56.538669054349555	783935.0	128.0	128.0	4447179.0	135717.13256835938	1.6407670546492406	22750.0	
56.5242447285944	783735.0	128.0	128.0	4447211.0	135718.10913085938	1.6252609044624455	22535.0	
56.53362054033525	783865.0	128.0	128.0	4447243.0	135719.08569335938	1.6090335379878924	22310.0	
56.5772541257446	784470.0	128.0	128.0	4447275.0	135720.06225585938	1.5985759018154029	22165.0	
56.5429963520761	783995.0	128.0	128.0	4447307.0	135721.03881835938	1.5996577262470397	22180.0	
56.59420270850691	784705.0	128.0	128.0	4447339.0	135722.01538085938	1.5910031307939447	22060.0	
56.57509047688133	784440.0	128.0	128.0	4447371.0	135722.99194335938	1.5877576574990342	22015.0	
56.5292932426087	783805.0	128.0	128.0	4447403.0	135723.96850585938	1.5798242783336973	21905.0	
56.59420270850691	784705.0	128.0	128.0	4447435.0	135724.94506835938	1.574054548031634	21825.0	
56.58122081532727	784525.0	128.0	128.0	4447467.0	135725.92163085938	1.5722515073122392	21800.0	
56.57797534203236	784480.0	128.0	128.0	4447499.0	135726.89819335938	1.5715302910244813	21790.0	
56.531456891471976	783835.0	128.0	128.0	4447531.0	135727.87475585938	1.566842385154055	21725.0	
56.511262835414755	783555.0	128.0	128.0	4447563.0	135728.85131835938	1.5726121154561181	21805.0	
56.53362054033525	783865.0	128.0	128.0	4447595.0	135729.82788085938	1.5639575200030233	21685.0	
56.507296145832086	783500.0	128.0	128.0	4447627.0	135730.80444335938	1.5751363724632708	21840.0	
56.42507748902768	782360.0	128.0	128.0	4447659.0	135731.78100585938	1.5870364412112763	22005.0	
56.52893263446482	783800.0	128.0	128.0	4447691.0	135732.75756835938	1.5949698203766134	22115.0	
56.47195654773195	783010.0	128.0	128.0	4447723.0	135733.73413085938	1.597854685527645	22155.0	
56.497559725947355	783365.0	128.0	128.0	4447755.0	135734.71069335938	1.5917243470817026	22070.0	
56.54948729866592	784085.0	128.0	128.0	4447787.0	135735.68725585938	1.5841515760602447	21965.0	
56.47087472330031	782995.0	128.0	128.0	4447819.0	135736.66381835938	1.566481777010176	21720.0	
56.531456891471976	783835.0	128.0	128.0	4447851.0	135737.64038085938	1.5520574512550178	21520.0	
56.49215060378917	783290.0	128.0	128.0	4447883.0	135738.61694335938	1.5322240033416754	21245.0	
56.453565532394116	782755.0	128.0	128.0	4447915.0	135739.59350585938	1.5181602857303962	21050.0	
56.47592323731462	783065.0	128.0	128.0	4447947.0	135740.57006835938	1.5228481916008225	21115.0	
56.49323242822081	783305.0	128.0	128.0	4447979.0	135741.54663085938	1.510226906565059	20940.0	
56.497199117803476	783360.0	128.0	128.0	4448011.0	135742.52319335938	1.5177996775865172	21045.0	
56.44851701837981	782685.0	128.0	128.0	4448043.0	135743.49975585938	1.5069814332701486	20895.0	
56.45645039754515	782795.0	128.0	128.0	4448075.0	135744.47631835938	1.5026541355436012	20835.0	
56.467989858149274	782955.0	128.0	128.0	4448107.0	135745.45288085938	1.4986874459609325	20780.0	
56.51306587613415	783580.0	128.0	128.0	4448139.0	135746.42944335938	1.5019329192558433	20825.0	
56.433010868193016	782470.0	128.0	128.0	4448171.0	135747.40600585938	1.5073420414140275	20900.0	
56.422553232020526	782325.0	128.0	128.0	4448203.0	135748.38256835938	1.5152754205793644	21010.0	
56.52063864715561	783685.0	128.0	128.0	4448235.0	135749.35913085938	1.510587514708938	20945.0	
56.44923823466757	782695.0	128.0	128.0	4448267.0	135750.33569335938	1.5181602857303962	21050.0	
56.48890513049426	783245.0	128.0	128.0	4448299.0	135751.31225585938	1.534387652204949	21275.0	
56.45248370796248	782740.0	128.0	128.0	4448331.0	135752.28881835938	1.5397967743631333	21350.0	
56.41714410986234	782250.0	128.0	128.0	4448363.0	135753.26538085938	1.5542211001182915	21550.0	
56.467629250005395	782950.0	128.0	128.0	4448395.0	135754.24194335938	1.5599908304203547	21630.0	
56.4315684356175	782450.0	128.0	128.0	4448427.0	135755.21850585938	1.5646787362907812	21695.0	
56.47267776401971	783020.0	128.0	128.0	4448459.0	135756.19506835938	1.5599908304203547	21630.0	
56.43192904376138	782455.0	128.0	128.0	4448491.0	135757.17163085938	1.5473695453845915	21455.0	
56.449959450955326	782705.0	128.0	128.0	4448523.0	135758.14819335938	1.5394361662192544	21345.0	
56.39658944566124	781965.0	128.0	128.0	4448555.0	135759.12475585938	1.5293391381906436	21205.0	
56.37062565930196	781605.0	128.0	128.0	4448587.0	135760.10131835938	1.5235694078885804	21125.0	
56.38685302577651	781830.0	128.0	128.0	4448619.0	135761.07788085938	1.5286179219028857	21195.0	
56.302470720108836	780660.0	128.0	128.0	4448651.0	135762.05444335938	1.5224875834569436	21110.0	
56.35584072540292	781400.0	128.0	128.0	4448683.0	135763.03100585938	1.526093664895733	21160.0	
56.34285883222328	781220.0	128.0	128.0	4448715.0	135764.00756835938	1.5221269753130646	21105.0	
56.40488343297046	782080.0	128.0	128.0	4448747.0	135764.98413085938	1.5131117717160907	20980.0	
56.368101402294805	781570.0	128.0	128.0	4448779.0	135765.96069335938	1.5214057590253067	21095.0	
56.40127735153167	782030.0	128.0	128.0	4448811.0	135766.93725585938	1.5250118404640962	21145.0	
56.40776829812149	782120.0	128.0	128.0	4448843.0	135767.91381835938	1.525733056751854	21155.0	
56.38468937691324	781800.0	128.0	128.0	4448875.0	135768.89038085938	1.5333058277733123	21260.0	
56.42183201573277	782315.0	128.0	128.0	4448907.0	135769.86694335938	1.5387149499314965	21335.0	
56.47736566989013	783085.0	128.0	128.0	4448939.0	135770.84350585938	1.5531392756866547	21535.0	
56.4384199903512	782545.0	128.0	128.0	4448971.0	135771.82006835938	1.5614332629958705	21650.0	
56.48638087348711	783210.0	128.0	128.0	4449003.0	135772.79663085938	1.5625150874275073	21665.0	
56.39370458051021	781925.0	128.0	128.0	4449035.0	135773.77319335938	1.5704484665928444	21775.0	
56.4881839142065	783235.0	128.0	128.0	4449067.0	135774.74975585938	1.5765788050387866	21860.0	
56.43733816591956	782530.0	128.0	128.0	4449099.0	135775.72631835938	1.5747757643193918	21835.0	
56.42219262387665	782320.0	128.0	128.0	4449131.0	135776.70288085938	1.565760560722418	21710.0	
56.39118032350306	781890.0	128.0	128.0	4449163.0	135777.67944335938	1.5563847489815652	21580.0	
56.43517451705629	782500.0	128.0	128.0	4449195.0	135778.65600585938	1.541599815082528	21375.0	
56.399113702668394	782000.0	128.0	128.0	4449227.0	135779.63256835938	1.5203239345936699	21080.0	
56.37062565930196	781605.0	128.0	128.0	4449259.0	135780.60913085938	1.5311421789100383	21230.0	
56.463662560422726	782895.0	128.0	128.0	4449291.0	135781.58569335938	1.5278967056151278	21185.0	
56.426519921603195	782380.0	128.0	128.0	4449323.0	135782.56225585938	1.526093664895733	21160.0	
56.43445330076853	782490.0	128.0	128.0	4449355.0	135783.53881835938	1.5278967056151278	21185.0	
56.34862856252534	781300.0	128.0	128.0	4449387.0	135784.51538085938	1.5206845427375488	21085.0	
56.41173498770416	782175.0	128.0	128.0	4449419.0	135785.49194335938	1.5156360287232433	21015.0	
56.41173498770416	782175.0	128.0	128.0	4449451.0	135786.46850585938	1.5242906241763383	21135.0	
56.35187403582025	781345.0	128.0	128.0	4449483.0	135787.44506835938	1.5214057590253067	21095.0	
56.43228965190526	782460.0	128.0	128.0	4449515.0	135788.42163085938	1.5235694078885804	21125.0	
56.36629836157541	781545.0	128.0	128.0	4449547.0	135789.39819335938	1.5250118404640962	21145.0	
56.401998567819426	782040.0	128.0	128.0	4449579.0	135790.37475585938	1.5289785300467647	21200.0	
56.36665896971929	781550.0	128.0	128.0	4449611.0	135791.35131835938	1.5444846802335597	21415.0	
56.326992073892605	781000.0	128.0	128.0	4449643.0	135792.32788085938	1.5553029245499284	21565.0	
56.38685302577651	781830.0	128.0	128.0	4449675.0	135793.30444335938	1.5556635326938073	21570.0	
56.35259525210801	781355.0	128.0	128.0	4449707.0	135794.28100585938	1.5607120467081126	21640.0	
56.39009849907142	781875.0	128.0	128.0	4449739.0	135795.25756835938	1.5495331942478652	21485.0	
56.46690803371764	782940.0	128.0	128.0	4449771.0	135796.23413085938	1.541960423226407	21380.0	
56.32158295173442	780925.0	128.0	128.0	4449803.0	135797.21069335938	1.5159966368671225	21020.0	
56.436977557775684	782525.0	128.0	128.0	4449835.0	135798.18725585938	1.5098662984211801	20935.0	
56.39695005380512	781970.0	128.0	128.0	4449867.0	135799.16381835938	1.4914752830833535	20680.0	
56.292734300224105	780525.0	128.0	128.0	4449899.0	135800.14038085938	1.47885399804759	20505.0	
56.43409269262465	782485.0	128.0	128.0	4449931.0	135801.11694335938	1.472723659601648	20420.0	
56.39009849907142	781875.0	128.0	128.0	4449963.0	135802.09350585938	1.4629872397169161	20285.0	
56.43589573334405	782510.0	128.0	128.0	4449995.0	135803.07006835938	1.4615448071414003	20265.0	
56.343940656654915	781235.0	128.0	128.0	4450027.0	135804.04663085938	1.456496293127095	20195.0	
56.354037684683526	781375.0	128.0	128.0	4450059.0	135805.02319335938	1.4510871709689106	20120.0	
56.39118032350306	781890.0	128.0	128.0	4450091.0	135805.99975585938	1.4536114279760632	20155.0	
56.33456484491406	781105.0	128.0	128.0	4450123.0	135806.97631835938	1.4593811582781266	20235.0	
56.416062285430705	782235.0	128.0	128.0	4450155.0	135807.95288085938	1.4510871709689106	20120.0	
56.28155544776386	780370.0	128.0	128.0	4450187.0	135808.92944335938	1.4503659546811527	20110.0	
56.23900368678614	779780.0	128.0	128.0	4450219.0	135809.90600585938	1.4514477791127895	20125.0	
56.27001598715973	780210.0	128.0	128.0	4450251.0	135810.88256835938	1.4582993338464898	20220.0	
56.223497536599346	779565.0	128.0	128.0	4450283.0	135811.85913085938	1.4698387944506164	20380.0	
56.36557714528765	781535.0	128.0	128.0	4450315.0	135812.83569335938	1.479214606191469	20510.0	
56.38685302577651	781830.0	128.0	128.0	4450347.0	135813.81225585938	1.4748873084649217	20450.0	
56.26785233829646	780180.0	128.0	128.0	4450379.0	135814.78881835938	1.4676751455873425	20350.0	
56.32951633089976	781035.0	128.0	128.0	4450411.0	135815.76538085938	1.4709206188822532	20395.0	
56.377837822179536	781705.0	128.0	128.0	4450443.0	135816.74194335938	1.456135684983216	20190.0	
56.391901539790815	781900.0	128.0	128.0	4450475.0	135817.71850585938	1.4467598732423632	20060.0	
56.29850403052617	780605.0	128.0	128.0	4450507.0	135818.69506835938	1.4381052777892682	19940.0	
56.377837822179536	781705.0	128.0	128.0	4450539.0	135819.67163085938	1.4215173031708364	19710.0	
56.388295458352026	781850.0	128.0	128.0	4450571.0	135820.64819335938	1.425123384609626	19760.0	
56.33528606120182	781115.0	128.0	128.0	4450603.0	135821.62475585938	1.4265658171851419	19780.0	
56.42075019130113	782300.0	128.0	128.0	4450635.0	135822.60131835938	1.4269264253290208	19785.0	
56.39081971535918	781885.0	128.0	128.0	4450667.0	135823.57788085938	1.4298112904800524	19825.0	
56.40055613524391	782020.0	128.0	128.0	4450699.0	135824.55444335938	1.4298112904800524	19825.0	
56.34177700779164	781205.0	128.0	128.0	4450731.0	135825.53100585938	1.432696155631084	19865.0	
56.395147013085726	781945.0	128.0	128.0	4450763.0	135826.50756835938	1.4355810207821156	19905.0	
56.39262275607857	781910.0	128.0	128.0	4450795.0	135827.48413085938	1.4301718986239313	19830.0	
56.33492545305794	781110.0	128.0	128.0	4450827.0	135828.46069335938	1.4305325067678103	19835.0	
56.38757424206427	781840.0	128.0	128.0	4450859.0	135829.43725585938	1.4352204126382366	19900.0	
56.42435627273992	782350.0	128.0	128.0	4450891.0	135830.41381835938	1.4381052777892682	19940.0	
56.34213761593552	781210.0	128.0	128.0	4450923.0	135831.39038085938	1.457217509414853	20205.0	
56.35584072540292	781400.0	128.0	128.0	4450955.0	135832.36694335938	1.4694781863067374	20375.0	
56.34538308923043	781255.0	128.0	128.0	4450987.0	135833.34350585938	1.4784933899037112	20500.0	
56.39334397236633	781920.0	128.0	128.0	4451019.0	135834.32006835938	1.4918358912272325	20685.0	
56.340695183360005	781190.0	128.0	128.0	4451051.0	135835.29663085938	1.5087844739895433	20920.0	
56.343580048511036	781230.0	128.0	128.0	4451083.0	135836.27319335938	1.4983268378170536	20775.0	
56.38072268733057	781745.0	128.0	128.0	4451115.0	135837.24975585938	1.4842631202057743	20580.0	
56.39298336422245	781915.0	128.0	128.0	4451147.0	135838.22631835938	1.4759691328965585	20465.0	
56.37387113259687	781650.0	128.0	128.0	4451179.0	135839.20288085938	1.4669539292995846	20340.0	
56.36701957786317	781555.0	128.0	128.0	4451211.0	135840.17944335938	1.4655114967240688	20320.0	
56.422913840164405	782330.0	128.0	128.0	4451243.0	135841.15600585938	1.4774115654720743	20485.0	
56.35836498241007	781435.0	128.0	128.0	4451275.0	135842.13256835938	1.4835419039180164	20570.0	
56.35007099510086	781320.0	128.0	128.0	4451307.0	135843.10913085938	1.47885399804759	20505.0	
56.35908619869783	781445.0	128.0	128.0	4451339.0	135844.08569335938	1.473084267745527	20425.0	
56.36593775343153	781540.0	128.0	128.0	4451371.0	135845.06225585938	1.4810176469108638	20535.0	
56.35908619869783	781445.0	128.0	128.0	4451403.0	135846.03881835938	1.4846237283496533	20585.0	
56.360889239417226	781470.0	128.0	128.0	4451435.0	135847.01538085938	1.4903934586517167	20665.0	
56.29021004321695	780490.0	128.0	128.0	4451467.0	135847.99194335938	1.4903934586517167	20665.0	
56.33600727748958	781125.0	128.0	128.0	4451499.0	135848.96850585938	1.488590417932322	20640.0	
56.40019552710003	782015.0	128.0	128.0	4451531.0	135849.94506835938	1.5030147436874801	20840.0	
56.31581322143236	780845.0	128.0	128.0	4451563.0	135850.92163085938	1.5077026495579064	20905.0	
56.351152819532494	781335.0	128.0	128.0	4451595.0	135851.89819335938	1.5253724486079752	21150.0	
56.39298336422245	781915.0	128.0	128.0	4451627.0	135852.87475585938	1.5390755580753754	21340.0	
56.39839248638064	781990.0	128.0	128.0	4451659.0	135853.85131835938	1.5437634639458018	21405.0	
56.29489794908738	780555.0	128.0	128.0	4451691.0	135854.82788085938	1.5459271128090755	21435.0	
56.37639538960402	781685.0	128.0	128.0	4451723.0	135855.80444335938	1.541599815082528	21375.0	
56.374952957028505	781665.0	128.0	128.0	4451755.0	135856.78100585938	1.535108868492707	21285.0	
56.39370458051021	781925.0	128.0	128.0	4451787.0	135857.75756835938	1.5296997463345225	21210.0	
56.27434328488628	780270.0	128.0	128.0	4451819.0	135858.73413085938	1.5138329880038486	20990.0	
56.23611882163511	779740.0	128.0	128.0	4451851.0	135859.71069335938	1.5116693391405749	20960.0	
56.17733969418284	778925.0	128.0	128.0	4451883.0	135860.68725585938	1.5080632577017854	20910.0	
56.29525855723126	780560.0	128.0	128.0	4451915.0	135861.66381835938	1.5185208938742751	21055.0	
56.21159746785134	779400.0	128.0	128.0	4451947.0	135862.64038085938	1.5181602857303962	21050.0	
56.309682882986415	780760.0	128.0	128.0	4451979.0	135863.61694335938	1.5167178531548804	21030.0	
56.24369159265657	779845.0	128.0	128.0	4452011.0	135864.59350585938	1.5185208938742751	21055.0	
56.35872559055395	781440.0	128.0	128.0	4452043.0	135865.57006835938	1.5181602857303962	21050.0	
56.2739826767424	780265.0	128.0	128.0	4452075.0	135866.54663085938	1.5232087997447015	21120.0	
56.31905869472727	780890.0	128.0	128.0	4452107.0	135867.52319335938	1.5253724486079752	21150.0	
56.32446781688545	780965.0	128.0	128.0	4452139.0	135868.49975585938	1.526814881183491	21170.0	
56.364855928999894	781525.0	128.0	128.0	4452171.0	135869.47631835938	1.525733056751854	21155.0	
56.326631465748726	780995.0	128.0	128.0	4452203.0	135870.45288085938	1.5315027870539175	21235.0	
56.36954383487032	781590.0	128.0	128.0	4452235.0	135871.42944335938	1.5545817082621705	21555.0	
56.29093125950471	780500.0	128.0	128.0	4452267.0	135872.40600585938	1.557466573413202	21595.0	
56.333843628626305	781095.0	128.0	128.0	4452299.0	135873.38256835938	1.5639575200030233	21685.0	
56.37387113259687	781650.0	128.0	128.0	4452331.0	135874.35913085938	1.55818778970096	21605.0	
56.333483020482426	781090.0	128.0	128.0	4452363.0	135875.33569335938	1.55818778970096	21605.0	
56.35836498241007	781435.0	128.0	128.0	4452395.0	135876.31225585938	1.5542211001182915	21550.0	
56.31905869472727	780890.0	128.0	128.0	4452427.0	135877.28881835938	1.5311421789100383	21230.0	
56.33528606120182	781115.0	128.0	128.0	4452459.0	135878.26538085938	1.526454273039612	21165.0	
56.33528606120182	781115.0	128.0	128.0	4452491.0	135879.24194335938	1.5163572450110014	21025.0	
56.3767559977479	781690.0	128.0	128.0	4452523.0	135880.21850585938	1.5134723798599696	20985.0	
56.27722815003731	780310.0	128.0	128.0	4452555.0	135881.19506835938	1.5095056902773012	20930.0	
56.33817092635285	781155.0	128.0	128.0	4452587.0	135882.17163085938	1.5066208251262696	20890.0	
56.36665896971929	781550.0	128.0	128.0	4452619.0	135883.14819335938	1.5080632577017854	20910.0	
56.26424625685767	780130.0	128.0	128.0	4452651.0	135884.12475585938	1.5084238658456643	20915.0	
56.33276180419467	781080.0	128.0	128.0	4452683.0	135885.10131835938	1.5120299472844538	20965.0	
56.30571619340375	780705.0	128.0	128.0	4452715.0	135886.07788085938	1.5131117717160907	20980.0	
56.39658944566124	781965.0	128.0	128.0	4452747.0	135887.05444335938	1.5170784612987593	21035.0	
56.333843628626305	781095.0	128.0	128.0	4452779.0	135888.03100585938	1.5149148124354854	21005.0	
56.28804639435368	780460.0	128.0	128.0	4452811.0	135889.00756835938	1.5242906241763383	21135.0	
56.27109781159137	780225.0	128.0	128.0	4452843.0	135889.98413085938	1.5217663671691857	21100.0	
56.32266477616606	780940.0	128.0	128.0	4452875.0	135890.96069335938	1.5340270440610702	21270.0	
56.2808342314761	780360.0	128.0	128.0	4452907.0	135891.93725585938	1.5473695453845915	21455.0	
56.3219435598783	780930.0	128.0	128.0	4452939.0	135892.91381835938	1.5538604919744126	21545.0	
56.333483020482426	781090.0	128.0	128.0	4452971.0	135893.89038085938	1.5639575200030233	21685.0	
56.33204058790691	781070.0	128.0	128.0	4453003.0	135894.86694335938	1.5617938711397494	21655.0	
56.33528606120182	781115.0	128.0	128.0	4453035.0	135895.84350585938	1.5653999525785391	21705.0	
56.326631465748726	780995.0	128.0	128.0	4453067.0	135896.82006835938	1.5495331942478652	21485.0	
56.32410720874157	780960.0	128.0	128.0	4453099.0	135897.79663085938	1.541599815082528	21375.0	
56.27145841973525	780230.0	128.0	128.0	4453131.0	135898.77319335938	1.5278967056151278	21185.0	
56.32266477616606	780940.0	128.0	128.0	4453163.0	135899.74975585938	1.5206845427375488	21085.0	
56.27362206859852	780260.0	128.0	128.0	4453195.0	135900.72631835938	1.5235694078885804	21125.0	
56.31256774813745	780800.0	128.0	128.0	4453227.0	135901.70288085938	1.526454273039612	21165.0	
56.26280382428215	780110.0	128.0	128.0	4453259.0	135902.67944335938	1.5275360974712489	21180.0	
56.26604929757706	780155.0	128.0	128.0	4453291.0	135903.65600585938	1.5242906241763383	21135.0	
56.33925275078449	781170.0	128.0	128.0	4453323.0	135904.63256835938	1.5275360974712489	21180.0	
56.27650693374955	780300.0	128.0	128.0	4453355.0	135905.60913085938	1.5293391381906436	21205.0	
56.261721999850515	780095.0	128.0	128.0	4453387.0	135906.58569335938	1.534387652204949	21275.0	
56.347186129949826	781280.0	128.0	128.0	4453419.0	135907.56225585938	1.5379937336437386	21325.0	
56.210515643419704	779385.0	128.0	128.0	4453451.0	135908.53881835938	1.5466483290968334	21445.0	
56.24729767409536	779895.0	128.0	128.0	4453483.0	135909.51538085938	1.5462877209529544	21440.0	
56.16760327429811	778790.0	128.0	128.0	4453515.0	135910.49194335938	1.5639575200030233	21685.0	
56.169406315017504	778815.0	128.0	128.0	4453547.0	135911.46850585938	1.5751363724632708	21840.0	
56.29093125950471	780500.0	128.0	128.0	4453579.0	135912.44506835938	1.5870364412112763	22005.0	
56.22530057731874	779590.0	128.0	128.0	4453611.0	135913.42163085938	1.6014607669664345	22205.0	
56.192845844369636	779140.0	128.0	128.0	4453643.0	135914.39819335938	1.6079517135562555	22295.0	
56.24513402523208	779865.0	128.0	128.0	4453675.0	135915.37475585938	1.6021819832541924	22215.0	
56.260279567275	780075.0	128.0	128.0	4453707.0	135916.35131835938	1.5967728610960081	22140.0	
56.26677051386482	780165.0	128.0	128.0	4453739.0	135917.32788085938	1.589560698218429	22040.0	
56.285882745490404	780430.0	128.0	128.0	4453771.0	135918.30444335938	1.5758575887510287	21850.0	
56.23575821349123	779735.0	128.0	128.0	4453803.0	135919.28100585938	1.5635969118591444	21680.0	
56.33961335892837	781175.0	128.0	128.0	4453835.0	135920.25756835938	1.5621544792836284	21660.0	
56.268934162728094	780195.0	128.0	128.0	4453867.0	135921.23413085938	1.5628756955713865	21670.0	
56.343940656654915	781235.0	128.0	128.0	4453899.0	135922.21069335938	1.5726121154561181	21805.0	
56.29165247579247	780510.0	128.0	128.0	4453931.0	135923.18725585938	1.5693666421612076	21760.0	
56.27109781159137	780225.0	128.0	128.0	4453963.0	135924.16381835938	1.5791030620459394	21895.0	
56.333843628626305	781095.0	128.0	128.0	4453995.0	135925.14038085938	1.5722515073122392	21800.0	
56.288767610641436	780470.0	128.0	128.0	4454027.0	135926.11694335938	1.5747757643193918	21835.0	
56.29345551651186	780535.0	128.0	128.0	4454059.0	135927.09350585938	1.5758575887510287	21850.0	
56.289488826929194	780480.0	128.0	128.0	4454091.0	135928.07006835938	1.5769394131826655	21865.0	
56.27073720344749	780220.0	128.0	128.0	4454123.0	135929.04663085938	1.5812667109092131	21925.0	
56.29778281423841	780595.0	128.0	128.0	4454155.0	135930.02319335938	1.5924455633694605	22080.0	
56.33997396707225	781180.0	128.0	128.0	4454187.0	135930.99975585938	1.6014607669664345	22205.0	
56.255231053260694	780005.0	128.0	128.0	4454219.0	135931.97631835938	1.613000227570561	22365.0	
56.29778281423841	780595.0	128.0	128.0	4454251.0	135932.95288085938	1.6194911741603821	22455.0	
56.28444031291489	780410.0	128.0	128.0	4454283.0	135933.92944335938	1.6270639451818403	22560.0	
56.247658282239236	779900.0	128.0	128.0	4454315.0	135934.90600585938	1.6191305660165032	22450.0	
56.27975240704446	780345.0	128.0	128.0	4454347.0	135935.88256835938	1.6180487415848663	22435.0	
56.27758875818119	780315.0	128.0	128.0	4454379.0	135936.85913085938	1.6079517135562555	22295.0	
56.3150920051446	780835.0	128.0	128.0	4454411.0	135937.83569335938	1.588478873786792	22025.0	
56.32591024946097	780985.0	128.0	128.0	4454443.0	135938.81225585938	1.5787424539020605	21890.0	
56.27145841973525	780230.0	128.0	128.0	4454475.0	135939.78881835938	1.5682848177295707	21745.0	
56.234676389059594	779720.0	128.0	128.0	4454507.0	135940.76538085938	1.5711696828806023	21785.0	
56.26064017541888	780080.0	128.0	128.0	4454539.0	135941.74194335938	1.5682848177295707	21745.0	
56.23575821349123	779735.0	128.0	128.0	4454571.0	135942.71850585938	1.566842385154055	21725.0	
56.32951633089976	781035.0	128.0	128.0	4454603.0	135943.69506835938	1.55818778970096	21605.0	
56.281916055907736	780375.0	128.0	128.0	4454635.0	135944.67163085938	1.5617938711397494	21655.0	
56.30174950382108	780650.0	128.0	128.0	4454667.0	135945.64819335938	1.557827181557081	21600.0	
56.25883713469948	780055.0	128.0	128.0	4454699.0	135946.62475585938	1.5596302222764757	21625.0	
56.27686754189343	780305.0	128.0	128.0	4454731.0	135947.60131835938	1.557466573413202	21595.0	
56.326992073892605	781000.0	128.0	128.0	4454763.0	135948.57788085938	1.5610726548519915	21645.0	
56.22457936103098	779580.0	128.0	128.0	4454795.0	135949.55444335938	1.5538604919744126	21545.0	
56.24910071481475	779920.0	128.0	128.0	4454827.0	135950.53100585938	1.574054548031634	21825.0	
56.25595226954845	780015.0	128.0	128.0	4454859.0	135951.50756835938	1.58234853534085	21940.0	
56.316534437720115	780855.0	128.0	128.0	4454891.0	135952.48413085938	1.58234853534085	21940.0	
56.26316443242603	780115.0	128.0	128.0	4454923.0	135953.46069335938	1.5910031307939447	22060.0	
56.30211011196496	780655.0	128.0	128.0	4454955.0	135954.43725585938	1.5852334004918816	21980.0	
56.285882745490404	780430.0	128.0	128.0	4454987.0	135955.41381835938	1.5834303597724868	21955.0	
56.227824834325894	779625.0	128.0	128.0	4455019.0	135956.39038085938	1.5794636701898184	21900.0	
56.30391315268435	780680.0	128.0	128.0	4455051.0	135957.36694335938	1.5621544792836284	21660.0	
56.17084874759302	778835.0	128.0	128.0	4455083.0	135958.34350585938	1.5495331942478652	21485.0	
56.148130434528646	778520.0	128.0	128.0	4455115.0	135959.32006835938	1.542321031370286	21385.0	
56.09872711881723	777835.0	128.0	128.0	4455147.0	135960.29663085938	1.5372725173559807	21315.0	
56.20799138641255	779350.0	128.0	128.0	4455179.0	135961.27319335938	1.534387652204949	21275.0	
56.19573070952067	779180.0	128.0	128.0	4455211.0	135962.24975585938	1.535469476636586	21290.0	
56.210155035275825	779380.0	128.0	128.0	4455243.0	135963.22631835938	1.5383543417876175	21330.0	
56.22457936103098	779580.0	128.0	128.0	4455275.0	135964.20288085938	1.5340270440610702	21270.0	
56.17770030232672	778930.0	128.0	128.0	4455307.0	135965.17944335938	1.5365513010682228	21305.0	
56.17517604531957	778895.0	128.0	128.0	4455339.0	135966.15600585938	1.5397967743631333	21350.0	
56.27434328488628	780270.0	128.0	128.0	4455371.0	135967.13256835938	1.5376331254998596	21320.0	
56.237921862354504	779765.0	128.0	128.0	4455403.0	135968.10913085938	1.5430422476580439	21395.0	
56.244412808944325	779855.0	128.0	128.0	4455435.0	135969.08569335938	1.5466483290968334	21445.0	
56.25378862068518	779985.0	128.0	128.0	4455467.0	135970.06225585938	1.5520574512550178	21520.0	
56.19032158736248	779105.0	128.0	128.0	4455499.0	135971.03881835938	1.5563847489815652	21580.0	
56.23936429493002	779785.0	128.0	128.0	4455531.0	135972.01538085938	1.5682848177295707	21745.0	
56.19500949323291	779170.0	128.0	128.0	4455563.0	135972.99194335938	1.5783818457581815	21885.0	
56.241167335649415	779810.0	128.0	128.0	4455595.0	135973.96850585938	1.5866758330673973	22000.0	
56.192845844369636	779140.0	128.0	128.0	4455627.0	135974.94506835938	1.5845121842041237	21970.0	
56.230709699476925	779665.0	128.0	128.0	4455659.0	135975.92163085938	1.5805454946214552	21915.0	
56.23359456462796	779705.0	128.0	128.0	4455691.0	135976.89819335938	1.5646787362907812	21695.0	
56.28444031291489	780410.0	128.0	128.0	4455723.0	135977.87475585938	1.5477301535284704	21460.0	
56.210155035275825	779380.0	128.0	128.0	4455755.0	135978.85131835938	1.5365513010682228	21305.0	
56.203303480542125	779285.0	128.0	128.0	4455787.0	135979.82788085938	1.5311421789100383	21230.0	
56.268212946440336	780185.0	128.0	128.0	4455819.0	135980.80444335938	1.5336664359171912	21265.0	
56.23647942977899	779745.0	128.0	128.0	4455851.0	135981.78100585938	1.534387652204949	21275.0	
56.230349091333046	779660.0	128.0	128.0	4455883.0	135982.75756835938	1.5289785300467647	21200.0	
56.19032158736248	779105.0	128.0	128.0	4455915.0	135983.73413085938	1.5311421789100383	21230.0	
56.22566118546262	779595.0	128.0	128.0	4455947.0	135984.71069335938	1.5300603544784015	21215.0	
56.25631287769233	780020.0	128.0	128.0	4455979.0	135985.68725585938	1.5304209626222804	21220.0	
56.18743672221145	779065.0	128.0	128.0	4456011.0	135986.66381835938	1.5336664359171912	21265.0	
56.23575821349123	779735.0	128.0	128.0	4456043.0	135987.64038085938	1.5311421789100383	21230.0	
56.217006590009525	779475.0	128.0	128.0	4456075.0	135988.61694335938	1.525733056751854	21155.0	
56.268212946440336	780185.0	128.0	128.0	4456107.0	135989.59350585938	1.5307815707661594	21225.0	
56.25703409398009	780030.0	128.0	128.0	4456139.0	135990.57006835938	1.541599815082528	21375.0	
56.19068219550636	779110.0	128.0	128.0	4456171.0	135991.54663085938	1.5549423164060494	21560.0	
56.24044611936166	779800.0	128.0	128.0	4456203.0	135992.52319335938	1.5599908304203547	21630.0	
56.202942872398246	779280.0	128.0	128.0	4456235.0	135993.49975585938	1.5635969118591444	21680.0	
56.18455185706042	779025.0	128.0	128.0	4456267.0	135994.47631835938	1.5625150874275073	21665.0	
56.281916055907736	780375.0	128.0	128.0	4456299.0	135995.45288085938	1.5700878584489655	21770.0	
56.24874010667087	779915.0	128.0	128.0	4456331.0	135996.42944335938	1.5625150874275073	21665.0	
56.227824834325894	779625.0	128.0	128.0	4456363.0	135997.40600585938	1.5466483290968334	21445.0	
56.25991895913112	780070.0	128.0	128.0	4456395.0	135998.38256835938	1.5311421789100383	21230.0	
56.22530057731874	779590.0	128.0	128.0	4456427.0	135999.35913085938	1.5203239345936699	21080.0	
56.20799138641255	779350.0	128.0	128.0	4456459.0	136000.33569335938	1.5181602857303962	21050.0	
56.20438530497376	779300.0	128.0	128.0	4456491.0	136001.31225585938	1.518881502018154	21060.0	
56.240806727505536	779805.0	128.0	128.0	4456523.0	136002.28881835938	1.5185208938742751	21055.0	
56.29093125950471	780500.0	128.0	128.0	4456555.0	136003.26538085938	1.511308730996696	20955.0	
56.19032158736248	779105.0	128.0	128.0	4456587.0	136004.24194335938	1.5080632577017854	20910.0	
56.27362206859852	780260.0	128.0	128.0	4456619.0	136005.21850585938	1.5062602169823907	20885.0	
56.230349091333046	779660.0	128.0	128.0	4456651.0	136006.19506835938	1.5084238658456643	20915.0	
56.237200646066746	779755.0	128.0	128.0	4456683.0	136007.17163085938	1.5087844739895433	20920.0	
56.138033406500035	778380.0	128.0	128.0	4456715.0	136008.14819335938	1.510587514708938	20945.0	
56.100530159536625	777860.0	128.0	128.0	4456747.0	136009.12475585938	1.5087844739895433	20920.0	
56.107021106126446	777950.0	128.0	128.0	4456779.0	136010.10131835938	1.5156360287232433	21015.0	
56.14560617752149	778485.0	128.0	128.0	4456811.0	136011.07788085938	1.535830084780465	21295.0	
56.16147293585217	778705.0	128.0	128.0	4456843.0	136012.05444335938	1.5307815707661594	21225.0	
56.182748816341025	779000.0	128.0	128.0	4456875.0	136013.03100585938	1.535108868492707	21285.0	
56.16976692316138	778820.0	128.0	128.0	4456907.0	136014.00756835938	1.5376331254998596	21320.0	
56.19933679095946	779230.0	128.0	128.0	4456939.0	136014.98413085938	1.5369119092121017	21310.0	
56.14236070422658	778440.0	128.0	128.0	4456971.0	136015.96069335938	1.5286179219028857	21195.0	
56.16976692316138	778820.0	128.0	128.0	4457003.0	136016.93725585938	1.5206845427375488	21085.0	
56.18815793849921	779075.0	128.0	128.0	4457035.0	136017.91381835938	1.511308730996696	20955.0	
56.202942872398246	779280.0	128.0	128.0	4457067.0	136018.89038085938	1.488229809788443	20635.0	
56.21953084701668	779510.0	128.0	128.0	4457099.0	136019.86694335938	1.4867873772129272	20615.0	
56.144884961233736	778475.0	128.0	128.0	4457131.0	136020.84350585938	1.4839025120618954	20575.0	
56.18887915478697	779085.0	128.0	128.0	4457163.0	136021.82006835938	1.479575214335348	20515.0	
56.22926726690141	779645.0	128.0	128.0	4457195.0	136022.79663085938	1.4842631202057743	20580.0	
56.193206452513515	779145.0	128.0	128.0	4457227.0	136023.77319335938	1.47200244331389	20410.0	
56.21159746785134	779400.0	128.0	128.0	4457259.0	136024.74975585938	1.4701994025944953	20385.0	
56.16652144986647	778775.0	128.0	128.0	4457291.0	136025.72631835938	1.4770509573281954	20480.0	
56.24188855193717	779820.0	128.0	128.0	4457323.0	136026.70288085938	1.4748873084649217	20450.0	
56.189239762930846	779090.0	128.0	128.0	4457355.0	136027.67944335938	1.47885399804759	20505.0	
56.12000299930609	778130.0	128.0	128.0	4457387.0	136028.65600585938	1.4820994713425006	20550.0	
56.22277632031159	779555.0	128.0	128.0	4457419.0	136029.63256835938	1.479214606191469	20510.0	
56.18094577562163	778975.0	128.0	128.0	4457451.0	136030.60913085938	1.4900328505078377	20660.0	
56.13334550062961	778315.0	128.0	128.0	4457483.0	136031.58569335938	1.4936389319466272	20710.0	
56.22638240175038	779605.0	128.0	128.0	4457515.0	136032.56225585938	1.5015723111119643	20820.0	
56.18202760005327	778990.0	128.0	128.0	4457547.0	136033.53881835938	1.5051783925507538	20870.0	
56.138394014643914	778385.0	128.0	128.0	4457579.0	136034.51538085938	1.5073420414140275	20900.0	
56.234315780915715	779715.0	128.0	128.0	4457611.0	136035.49194335938	1.5008510948242064	20810.0	
56.244052200800446	779850.0	128.0	128.0	4457643.0	136036.46850585938	1.4871479853568061	20620.0	
56.16724266615423	778785.0	128.0	128.0	4457675.0	136037.44506835938	1.4712812270261322	20400.0	
56.158948678845015	778670.0	128.0	128.0	4457707.0	136038.42163085938	1.4507265628250317	20115.0	
56.1301000273347	778270.0	128.0	128.0	4457739.0	136039.39819335938	1.4442356162352106	20025.0	
56.19140341179412	779120.0	128.0	128.0	4457771.0	136040.37475585938	1.4507265628250317	20115.0	
56.10233320025602	777885.0	128.0	128.0	4457803.0	136041.35131835938	1.4554144686954582	20180.0	
56.25883713469948	780055.0	128.0	128.0	4457835.0	136042.32788085938	1.4554144686954582	20180.0	
56.20402469682988	779295.0	128.0	128.0	4457867.0	136043.30444335938	1.456496293127095	20195.0	
56.22962787504529	779650.0	128.0	128.0	4457899.0	136044.28100585938	1.456856901270974	20200.0	
56.18815793849921	779075.0	128.0	128.0	4457931.0	136045.25756835938	1.457217509414853	20205.0	
56.22241571216771	779550.0	128.0	128.0	4457963.0	136046.23413085938	1.457578117558732	20210.0	
56.1643578010032	778745.0	128.0	128.0	4457995.0	136047.21069335938	1.464069064148553	20300.0	
56.19104280365024	779115.0	128.0	128.0	4458027.0	136048.18725585938	1.463347847860795	20290.0	
56.186715505923694	779055.0	128.0	128.0	4458059.0	136049.16381835938	1.4662327130118267	20330.0	
56.217367198153404	779480.0	128.0	128.0	4458091.0	136050.14038085938	1.4745267003210427	20445.0	
56.19212462808188	779130.0	128.0	128.0	4458123.0	136051.11694335938	1.4849843364935325	20590.0	
56.231070307620804	779670.0	128.0	128.0	4458155.0	136052.09350585938	1.4972450133854167	20760.0	
56.18022455933387	778965.0	128.0	128.0	4458187.0	136053.07006835938	1.510587514708938	20945.0	
56.24224916008105	779825.0	128.0	128.0	4458219.0	136054.04663085938	1.5051783925507538	20870.0	
56.240806727505536	779805.0	128.0	128.0	4458251.0	136055.02319335938	1.5123905554283328	20970.0	
56.23359456462796	779705.0	128.0	128.0	4458283.0	136055.99975585938	1.5062602169823907	20885.0	
56.22566118546262	779595.0	128.0	128.0	4458315.0	136056.97631835938	1.4932783238027483	20705.0	
56.15930928698889	778675.0	128.0	128.0	4458347.0	136057.95288085938	1.4835419039180164	20570.0	
56.094039212946804	777770.0	128.0	128.0	4458379.0	136058.92944335938	1.4752479166088006	20455.0	
56.090072523364135	777715.0	128.0	128.0	4458411.0	136059.90600585938	1.4691175781628583	20370.0	
56.11170901199687	778015.0	128.0	128.0	4458443.0	136060.88256835938	1.4658721048679477	20325.0	
56.152097124111314	778575.0	128.0	128.0	4458475.0	136061.85913085938	1.4669539292995846	20340.0	
56.148491042672525	778525.0	128.0	128.0	4458507.0	136062.83569335938	1.4698387944506164	20380.0	
56.196451925808425	779190.0	128.0	128.0	4458539.0	136063.81225585938	1.4694781863067374	20375.0	
56.12541212146427	778205.0	128.0	128.0	4458571.0	136064.78881835938	1.4701994025944953	20385.0	
56.1780609104706	778935.0	128.0	128.0	4458603.0	136065.76538085938	1.4712812270261322	20400.0	
56.15281834039907	778585.0	128.0	128.0	4458635.0	136066.74194335938	1.4738054840332848	20435.0	
56.21556415743401	779455.0	128.0	128.0	4458667.0	136067.71850585938	1.47885399804759	20505.0	
56.19212462808188	779130.0	128.0	128.0	4458699.0	136068.69506835938	1.479214606191469	20510.0	
56.19753375024006	779205.0	128.0	128.0	4458731.0	136069.67163085938	1.4810176469108638	20535.0	
56.20077922353497	779250.0	128.0	128.0	4458763.0	136070.64819335938	1.4979662296731746	20770.0	
56.15317894854295	778590.0	128.0	128.0	4458795.0	136071.62475585938	1.5026541355436012	20835.0	
56.210155035275825	779380.0	128.0	128.0	4458827.0	136072.60131835938	1.511308730996696	20955.0	
56.17481543717569	778890.0	128.0	128.0	4458859.0	136073.57788085938	1.5116693391405749	20960.0	
56.15822746255726	778660.0	128.0	128.0	4458891.0	136074.55444335938	1.5159966368671225	21020.0	
56.152097124111314	778575.0	128.0	128.0	4458923.0	136075.53100585938	1.510948122852817	20950.0	
56.24044611936166	779800.0	128.0	128.0	4458955.0	136076.50756835938	1.4976056215292957	20765.0	
56.1986155746717	779220.0	128.0	128.0	4458987.0	136077.48413085938	1.4813782550547427	20540.0	
56.16832449058587	778800.0	128.0	128.0	4459019.0	136078.46069335938	1.4734448758894059	20430.0	
56.134427325061246	778330.0	128.0	128.0	4459051.0	136079.43725585938	1.456496293127095	20195.0	
56.13911523093167	778395.0	128.0	128.0	4459083.0	136080.41381835938	1.4604629827097635	20250.0	
56.224218752887104	779575.0	128.0	128.0	4459115.0	136081.39038085938	1.448923522105637	20090.0	
56.186354897779815	779050.0	128.0	128.0	4459147.0	136082.36694335938	1.4507265628250317	20115.0	
56.14596678566537	778490.0	128.0	128.0	4459179.0	136083.34350585938	1.4463992650984843	20055.0	
56.123248472601	778175.0	128.0	128.0	4459211.0	136084.32006835938	1.448562913961758	20085.0	
56.18202760005327	778990.0	128.0	128.0	4459243.0	136085.29663085938	1.4528902116883053	20145.0	
56.182748816341025	779000.0	128.0	128.0	4459275.0	136086.27319335938	1.448202305817879	20080.0	
56.093678604802925	777765.0	128.0	128.0	4459307.0	136087.24975585938	1.4474810895301211	20070.0	
56.20510652126152	779310.0	128.0	128.0	4459339.0	136088.22631835938	1.4510871709689106	20120.0	
56.14921225896028	778535.0	128.0	128.0	4459371.0	136089.20288085938	1.4420719673719369	19995.0	
56.186715505923694	779055.0	128.0	128.0	4459403.0	136090.17944335938	1.4597417664220056	20240.0	
56.22674300989426	779610.0	128.0	128.0	4459435.0	136091.15600585938	1.4683963618751004	20360.0	
56.155703205550104	778625.0	128.0	128.0	4459467.0	136092.13256835938	1.479575214335348	20515.0	
56.19032158736248	779105.0	128.0	128.0	4459499.0	136093.10913085938	1.487508593500685	20625.0	
56.17842151861448	778940.0	128.0	128.0	4459531.0	136094.08569335938	1.487869201644564	20630.0	
56.11964239116221	778125.0	128.0	128.0	4459563.0	136095.06225585938	1.4849843364935325	20590.0	
56.21953084701668	779510.0	128.0	128.0	4459595.0	136096.03881835938	1.4781327817598322	20495.0	
56.155342597406225	778620.0	128.0	128.0	4459627.0	136097.01538085938	1.4604629827097635	20250.0	
56.18058516747775	778970.0	128.0	128.0	4459659.0	136097.99194335938	1.4474810895301211	20070.0	
56.13983644721943	778405.0	128.0	128.0	4459691.0	136098.96850585938	1.4287294660484156	19810.0	
56.25198557996578	779960.0	128.0	128.0	4459723.0	136099.94506835938	1.4265658171851419	19780.0	
56.13298489248573	778310.0	128.0	128.0	4459755.0	136100.92163085938	1.4269264253290208	19785.0	
56.16760327429811	778790.0	128.0	128.0	4459787.0	136101.89819335938	1.432696155631084	19865.0	
56.16724266615423	778785.0	128.0	128.0	4459819.0	136102.87475585938	1.4352204126382366	19900.0	
56.237200646066746	779755.0	128.0	128.0	4459851.0	136103.85131835938	1.4240415601779892	19745.0	
56.134427325061246	778330.0	128.0	128.0	4459883.0	136104.82788085938	1.4280082497606577	19800.0	
56.17445482903181	778885.0	128.0	128.0	4459915.0	136105.80444335938	1.4337779800627208	19880.0	
56.2054671294054	779315.0	128.0	128.0	4459947.0	136106.78100585938	1.4409901429403	19980.0	
56.114233269004025	778050.0	128.0	128.0	4459979.0	136107.75756835938	1.4456780488107264	20045.0	
56.05148745196909	777180.0	128.0	128.0	4460011.0	136108.73413085938	1.4438750080913316	20020.0	
56.07420576503346	777495.0	128.0	128.0	4460043.0	136109.71069335938	1.4582993338464898	20220.0	
56.09476042923456	777780.0	128.0	128.0	4460075.0	136110.68725585938	1.47200244331389	20410.0	
56.110627187565235	778000.0	128.0	128.0	4460107.0	136111.66381835938	1.4810176469108638	20535.0	
56.165439625434836	778760.0	128.0	128.0	4460139.0	136112.64038085938	1.4846237283496533	20585.0	
56.117478742298935	778095.0	128.0	128.0	4460171.0	136113.61694335938	1.4860661609251693	20605.0	
56.16760327429811	778790.0	128.0	128.0	4460203.0	136114.59350585938	1.4842631202057743	20580.0	
56.12360908074488	778180.0	128.0	128.0	4460235.0	136115.57006835938	1.4860661609251693	20605.0	
56.13659097392452	778360.0	128.0	128.0	4460267.0	136116.54663085938	1.4716418351700111	20405.0	
56.16039111142053	778690.0	128.0	128.0	4460299.0	136117.52319335938	1.4604629827097635	20250.0	
56.179142734902236	778950.0	128.0	128.0	4460331.0	136118.49975585938	1.4496447383933948	20100.0	
56.14416374494598	778465.0	128.0	128.0	4460363.0	136119.47631835938	1.4503659546811527	20110.0	
56.19537010137679	779175.0	128.0	128.0	4460395.0	136120.45288085938	1.4510871709689106	20120.0	
56.19897618281558	779225.0	128.0	128.0	4460427.0	136121.42944335938	1.4536114279760632	20155.0	
56.19392766880127	779155.0	128.0	128.0	4460459.0	136122.40600585938	1.4582993338464898	20220.0	
56.186354897779815	779050.0	128.0	128.0	4460491.0	136123.38256835938	1.4619054152852793	20270.0	
56.13334550062961	778315.0	128.0	128.0	4460523.0	136124.35913085938	1.4629872397169161	20285.0	
56.18202760005327	778990.0	128.0	128.0	4460555.0	136125.33569335938	1.473084267745527	20425.0	
56.17156996388078	778845.0	128.0	128.0	4460587.0	136126.31225585938	1.4824600794863796	20555.0	
56.231070307620804	779670.0	128.0	128.0	4460619.0	136127.28881835938	1.4925571075149904	20695.0	
56.17048813944914	778830.0	128.0	128.0	4460651.0	136128.26538085938	1.4936389319466272	20710.0	
56.17733969418284	778925.0	128.0	128.0	4460683.0	136129.24194335938	1.5008510948242064	20810.0	
56.223497536599346	779565.0	128.0	128.0	4460715.0	136130.21850585938	1.5210451508814278	21090.0	
56.237921862354504	779765.0	128.0	128.0	4460747.0	136131.19506835938	1.534748260348828	21280.0	
56.199697399103336	779235.0	128.0	128.0	4460779.0	136132.17163085938	1.542321031370286	21385.0	
56.19104280365024	779115.0	128.0	128.0	4460811.0	136133.14819335938	1.55133623496726	21510.0	
56.199697399103336	779235.0	128.0	128.0	4460843.0	136134.12475585938	1.5567453571254442	21585.0	
56.200418615391094	779245.0	128.0	128.0	4460875.0	136135.10131835938	1.5686454258734497	21750.0	
56.21628537372177	779465.0	128.0	128.0	4460907.0	136136.07788085938	1.5653999525785391	21705.0	
56.196451925808425	779190.0	128.0	128.0	4460939.0	136137.05444335938	1.5567453571254442	21585.0	
56.20618834569316	779325.0	128.0	128.0	4460971.0	136138.03100585938	1.550975626823381	21505.0	
56.220973279592194	779530.0	128.0	128.0	4461003.0	136139.00756835938	1.5488119779601073	21475.0	
56.1643578010032	778745.0	128.0	128.0	4461035.0	136139.98413085938	1.5538604919744126	21545.0	
56.21880963072892	779500.0	128.0	128.0	4461067.0	136140.96069335938	1.5563847489815652	21580.0	
56.19753375024006	779205.0	128.0	128.0	4461099.0	136141.93725585938	1.5646787362907812	21695.0	
56.25631287769233	780020.0	128.0	128.0	4461131.0	136142.91381835938	1.5780212376143024	21880.0	
56.21592476557789	779460.0	128.0	128.0	4461163.0	136143.89038085938	1.5776606294704234	21875.0	
56.227103618038136	779615.0	128.0	128.0	4461195.0	136144.86694335938	1.5859546167796394	21990.0	
56.26640990572094	780160.0	128.0	128.0	4461227.0	136145.84350585938	1.5920849552255816	22075.0	
56.210155035275825	779380.0	128.0	128.0	4461259.0	136146.82006835938	1.6000183343909187	22185.0	
56.23323395648408	779700.0	128.0	128.0	4461291.0	136147.79663085938	1.6000183343909187	22185.0	
56.20510652126152	779310.0	128.0	128.0	4461323.0	136148.77319335938	1.6021819832541924	22215.0	
56.14632739380925	778495.0	128.0	128.0	4461355.0	136149.74975585938	1.6259821207502034	22545.0	
56.22530057731874	779590.0	128.0	128.0	4461387.0	136150.72631835938	1.644012527944151	22795.0	
56.200058007247215	779240.0	128.0	128.0	4461419.0	136151.70288085938	1.6587974618431882	23000.0	
56.21592476557789	779460.0	128.0	128.0	4461451.0	136152.67944335938	1.6739430038861043	23210.0	
56.22493996917486	779585.0	128.0	128.0	4461483.0	136153.65600585938	1.6797127341881675	23290.0	
56.227464226182015	779620.0	128.0	128.0	4461515.0	136154.63256835938	1.6851218563463517	23365.0	
56.227824834325894	779625.0	128.0	128.0	4461547.0	136155.60913085938	1.6840400319147149	23350.0	
56.23539760534735	779730.0	128.0	128.0	4461579.0	136156.58569335938	1.6804339504759254	23300.0	
56.15101529967968	778560.0	128.0	128.0	4461611.0	136157.56225585938	1.676467260893257	23245.0	
56.11134840385299	778010.0	128.0	128.0	4461643.0	136158.53881835938	1.6649278002891303	23085.0	
56.07204211617019	777465.0	128.0	128.0	4461675.0	136159.51538085938	1.6631247595697356	23060.0	
56.13623036578064	778355.0	128.0	128.0	4461707.0	136160.49194335938	1.6685338817279198	23135.0	
56.17012753130526	778825.0	128.0	128.0	4461739.0	136161.46850585938	1.6685338817279198	23135.0	
56.21448233300237	779440.0	128.0	128.0	4461771.0	136162.44506835938	1.667452057296283	23120.0	
56.175536653463446	778900.0	128.0	128.0	4461803.0	136163.42163085938	1.6638459758574935	23070.0	
56.1780609104706	778935.0	128.0	128.0	4461835.0	136164.39819335938	1.6627641514258567	23055.0	
56.23611882163511	779740.0	128.0	128.0	4461867.0	136165.37475585938	1.6688944898717988	23140.0	
56.165439625434836	778760.0	128.0	128.0	4461899.0	136166.35131835938	1.6652884084330093	23090.0	
56.17842151861448	778940.0	128.0	128.0	4461931.0	136167.32788085938	1.6717793550228306	23180.0	
56.214121724858494	779435.0	128.0	128.0	4461963.0	136168.30444335938	1.6750248283177411	23225.0	
56.25090375553415	779945.0	128.0	128.0	4461995.0	136169.28100585938	1.6750248283177411	23225.0	
56.24693706595148	779890.0	128.0	128.0	4462027.0	136170.25756835938	1.6937764517994467	23485.0	
56.220252063304436	779520.0	128.0	128.0	4462059.0	136171.23413085938	1.7053159124035733	23645.0	
56.2397249030739	779790.0	128.0	128.0	4462091.0	136172.21069335938	1.7164947648638207	23800.0	
56.21484294114625	779445.0	128.0	128.0	4462123.0	136173.18725585938	1.7283948336118262	23965.0	
56.24333098451269	779840.0	128.0	128.0	4462155.0	136174.16381835938	1.7316403069067368	24010.0	
56.19464888508903	779165.0	128.0	128.0	4462187.0	136175.14038085938	1.7269524010363104	23945.0	
56.22205510402383	779545.0	128.0	128.0	4462219.0	136176.11694335938	1.722985711453642	23890.0	
56.26604929757706	780155.0	128.0	128.0	4462251.0	136177.09350585938	1.7035128716841785	23620.0	
56.22926726690141	779645.0	128.0	128.0	4462283.0	136178.07006835938	1.6901703703606572	23435.0	
56.285522137346526	780425.0	128.0	128.0	4462315.0	136179.04663085938	1.6815157749075622	23315.0	
56.234676389059594	779720.0	128.0	128.0	4462347.0	136180.02319335938	1.6851218563463517	23365.0	
56.210515643419704	779385.0	128.0	128.0	4462379.0	136180.99975585938	1.6941370599433256	23490.0	
56.268573554584215	780190.0	128.0	128.0	4462411.0	136181.97631835938	1.691612802936173	23455.0	
56.189960979218604	779100.0	128.0	128.0	4462443.0	136182.95288085938	1.6944976680872046	23495.0	
56.20402469682988	779295.0	128.0	128.0	4462475.0	136183.92944335938	1.6944976680872046	23495.0	
56.23684003792287	779750.0	128.0	128.0	4462507.0	136184.90600585938	1.6930552355116888	23475.0	
56.227103618038136	779615.0	128.0	128.0	4462539.0	136185.88256835938	1.7063977368352101	23660.0	
56.27145841973525	780230.0	128.0	128.0	4462571.0	136186.85913085938	1.7063977368352101	23660.0	
56.1780609104706	778935.0	128.0	128.0	4462603.0	136187.83569335938	1.7114462508495154	23730.0	
56.24874010667087	779915.0	128.0	128.0	4462635.0	136188.81225585938	1.7110856427056365	23725.0	
56.18851854664309	779080.0	128.0	128.0	4462667.0	136189.78881835938	1.7262311847485525	23935.0	
56.17661847789508	778915.0	128.0	128.0	4462699.0	136190.76538085938	1.745343416374137	24200.0	
56.196451925808425	779190.0	128.0	128.0	4462731.0	136191.74194335938	1.7532767955394741	24310.0	
56.124690905176514	778195.0	128.0	128.0	4462763.0	136192.71850585938	1.760488958417053	24410.0	
56.282637272195494	780385.0	128.0	128.0	4462795.0	136193.69506835938	1.7637344317119636	24455.0	
56.24369159265657	779845.0	128.0	128.0	4462827.0	136194.67163085938	1.7648162561436007	24470.0	
56.227464226182015	779620.0	128.0	128.0	4462859.0	136195.64819335938	1.760488958417053	24410.0	
56.14740921824089	778510.0	128.0	128.0	4462891.0	136196.62475585938	1.753998011827232	24320.0	
56.24333098451269	779840.0	128.0	128.0	4462923.0	136197.60131835938	1.744982808230258	24195.0	
56.20258226425437	779275.0	128.0	128.0	4462955.0	136198.57788085938	1.7363282127771633	24075.0	
56.28480092105877	780415.0	128.0	128.0	4462987.0	136199.55444335938	1.7348857802016475	24055.0	
56.24549463337596	779870.0	128.0	128.0	4463019.0	136200.53100585938	1.7327221313383736	24025.0	
56.231070307620804	779670.0	128.0	128.0	4463051.0	136201.50756835938	1.7370494290649212	24085.0	
56.26424625685767	780130.0	128.0	128.0	4463083.0	136202.48413085938	1.7374100372088002	24090.0	
56.18166699190939	778985.0	128.0	128.0	4463115.0	136203.46069335938	1.7352463883455265	24060.0	
56.247658282239236	779900.0	128.0	128.0	4463147.0	136204.43725585938	1.7413767267914686	24145.0	
56.1780609104706	778935.0	128.0	128.0	4463179.0	136205.41381835938	1.7424585512231054	24160.0	
56.26749173015258	780175.0	128.0	128.0	4463211.0	136206.39038085938	1.744982808230258	24195.0	
56.18058516747775	778970.0	128.0	128.0	4463243.0	136207.36694335938	1.7475070652374107	24230.0	
56.13082124362246	778280.0	128.0	128.0	4463275.0	136208.34350585938	1.7532767955394741	24310.0	
56.08863009078862	777695.0	128.0	128.0	4463307.0	136209.32006835938	1.754358619971111	24325.0	
56.19068219550636	779110.0	128.0	128.0	4463339.0	136210.29663085938	1.7745526760283323	24605.0	
56.09439982109068	777775.0	128.0	128.0	4463371.0	136211.27319335938	1.785370920344701	24755.0	
56.230709699476925	779665.0	128.0	128.0	4463403.0	136212.24975585938	1.791861866934522	24845.0	
56.1575062462695	778650.0	128.0	128.0	4463435.0	136213.22631835938	1.7954679483733116	24895.0	
56.168685098729746	778805.0	128.0	128.0	4463467.0	136214.20288085938	1.7940255157977958	24875.0	
56.21303990042686	779420.0	128.0	128.0	4463499.0	136215.17944335938	1.7875345692079747	24785.0	
56.20835199455643	779355.0	128.0	128.0	4463531.0	136216.15600585938	1.7839284877691852	24735.0	
56.237200646066746	779755.0	128.0	128.0	4463563.0	136217.13256835938	1.770585986445664	24550.0	
56.23684003792287	779750.0	128.0	128.0	4463595.0	136218.10913085938	1.7590465258415373	24390.0	
56.207270170124794	779340.0	128.0	128.0	4463627.0	136219.08569335938	1.7471464570935318	24225.0	
56.20618834569316	779325.0	128.0	128.0	4463659.0	136220.06225585938	1.7399342942159528	24125.0	
56.2808342314761	780360.0	128.0	128.0	4463691.0	136221.03881835938	1.7424585512231054	24160.0	
56.230349091333046	779660.0	128.0	128.0	4463723.0	136222.01538085938	1.7374100372088002	24090.0	
56.231070307620804	779670.0	128.0	128.0	4463755.0	136222.99194335938	1.7402949023598318	24130.0	
56.25414922882906	779990.0	128.0	128.0	4463787.0	136223.96850585938	1.7359676046332844	24070.0	
56.21989145516056	779515.0	128.0	128.0	4463819.0	136224.94506835938	1.7363282127771633	24075.0	
56.31112531556193	780780.0	128.0	128.0	4463851.0	136225.92163085938	1.7305584824751	23995.0	
56.206909561980915	779335.0	128.0	128.0	4463883.0	136226.89819335938	1.7356069964894054	24065.0	
56.28732517806592	780450.0	128.0	128.0	4463915.0	136227.87475585938	1.7374100372088002	24090.0	
56.241527943793294	779815.0	128.0	128.0	4463947.0	136228.85131835938	1.7370494290649212	24085.0	
56.29165247579247	780510.0	128.0	128.0	4463979.0	136229.82788085938	1.746064632661895	24210.0	
56.196451925808425	779190.0	128.0	128.0	4464011.0	136230.80444335938	1.7597677421292952	24400.0	
56.23684003792287	779750.0	128.0	128.0	4464043.0	136231.78100585938	1.7644556479997215	24465.0	
56.281916055907736	780375.0	128.0	128.0	4464075.0	136232.75756835938	1.7597677421292952	24400.0	
56.28696456992204	780445.0	128.0	128.0	4464107.0	136233.73413085938	1.7644556479997215	24465.0	
56.241527943793294	779815.0	128.0	128.0	4464139.0	136234.71069335938	1.7622919991364479	24435.0	
56.23684003792287	779750.0	128.0	128.0	4464171.0	136235.68725585938	1.7496707141006846	24260.0	
56.24729767409536	779895.0	128.0	128.0	4464203.0	136236.66381835938	1.738491861640437	24105.0	
56.251264363678025	779950.0	128.0	128.0	4464235.0	136237.64038085938	1.7273130091801894	23950.0	
56.23900368678614	779780.0	128.0	128.0	4464267.0	136238.61694335938	1.713970507856668	23765.0	
56.241527943793294	779815.0	128.0	128.0	4464299.0	136239.59350585938	1.7042340879719364	23630.0	
56.295979773519015	780570.0	128.0	128.0	4464331.0	136240.57006835938	1.7017098309647836	23595.0	
56.22169449587995	779540.0	128.0	128.0	4464363.0	136241.54663085938	1.6973825332382362	23535.0	
56.227103618038136	779615.0	128.0	128.0	4464395.0	136242.52319335938	1.690891586648415	23445.0	
56.24982193110251	779930.0	128.0	128.0	4464427.0	136243.49975585938	1.690891586648415	23445.0	
56.22133388773607	779535.0	128.0	128.0	4464459.0	136244.47631835938	1.6865642889218675	23385.0	
56.282276664051615	780380.0	128.0	128.0	4464491.0	136245.45288085938	1.6880067214973835	23405.0	
56.189960979218604	779100.0	128.0	128.0	4464523.0	136246.42944335938	1.6944976680872046	23495.0	
56.234315780915715	779715.0	128.0	128.0	4464555.0	136247.40600585938	1.6937764517994467	23485.0	
56.29778281423841	780595.0	128.0	128.0	4464587.0	136248.38256835938	1.6898097622167783	23430.0	
