idDB4A	idDB4A	idDB4A	idDB4A	idDB4A	idDB4A	idDB4A	idDB4A	
EMG_CH2_24BIT	EMG_CH2_24BIT	ECG_EMG_Status1	ECG_EMG_Status1	Timestamp	Timestamp	EMG_CH1_24BIT	EMG_CH1_24BIT	
UNCAL	CAL	UNCAL	CAL	CAL	UNCAL	CAL	UNCAL	
no_units	mV	no_units	no_units	ms	Ticks	mV	no_units	
758055.0	54.67216130163209	128.0	128.0	340181.2438964844	1.1147059E7	55.19900979983924	765360.0	
758080.0	54.67396434235148	128.0	128.0	340182.2204589844	1.1147091E7	55.203337097565786	765420.0	
757225.0	54.61230034974818	128.0	128.0	340183.1970214844	1.1147123E7	55.213794733738276	765565.0	
758310.0	54.690552316969914	128.0	128.0	340184.1735839844	1.1147155E7	55.22208872104749	765680.0	
758010.0	54.66891582833718	128.0	128.0	340185.1501464844	1.1147187E7	55.237594871234286	765895.0	
757810.0	54.65449150258202	128.0	128.0	340186.1267089844	1.1147219E7	55.23182514093222	765815.0	
757625.0	54.6411490012585	128.0	128.0	340187.1032714844	1.1147251E7	55.24372520968023	765980.0	
758550.0	54.7078615078761	128.0	128.0	340188.0798339844	1.1147283E7	55.25237980513332	766100.0	
757790.0	54.6530490700065	128.0	128.0	340189.0563964844	1.1147315E7	55.27149203675891	766365.0	
757835.0	54.656294543301414	128.0	128.0	340190.0329589844	1.1147347E7	55.28339210550691	766530.0	
758055.0	54.67216130163209	128.0	128.0	340191.0095214844	1.1147379E7	55.286276970657944	766570.0	
757960.0	54.66530974689839	128.0	128.0	340191.9860839844	1.1147411E7	55.27113142861503	766360.0	
757430.0	54.62708528364722	128.0	128.0	340192.9626464844	1.1147443E7	55.27041021232727	766350.0	
756780.0	54.580206224942955	128.0	128.0	340193.9392089844	1.1147475E7	55.2527404132772	766105.0	
757155.0	54.60725183573388	128.0	128.0	340194.9157714844	1.1147507E7	55.23543122237101	765865.0	
757085.0	54.60220332171957	128.0	128.0	340195.8923339844	1.1147539E7	55.231103924644465	765805.0	
757625.0	54.6411490012585	128.0	128.0	340196.8688964844	1.1147571E7	55.221006896615854	765665.0	
757530.0	54.6342974465248	128.0	128.0	340197.8454589844	1.1147603E7	55.22136750475973	765670.0	
757655.0	54.64331265012177	128.0	128.0	340198.8220214844	1.1147635E7	55.23182514093222	765815.0	
758525.0	54.70605846715671	128.0	128.0	340199.7985839844	1.1147667E7	55.24697068297514	766025.0	
757800.0	54.65377028629426	128.0	128.0	340200.7751464844	1.1147699E7	55.25742831914763	766170.0	
757385.0	54.62383981035231	128.0	128.0	340201.7517089844	1.1147731E7	55.27041021232727	766350.0	
758100.0	54.675406774927	128.0	128.0	340202.7282714844	1.1147763E7	55.27401629376606	766400.0	
757230.0	54.61266095789206	128.0	128.0	340203.7048339844	1.1147795E7	55.28735879508958	766585.0	
757850.0	54.65737636773305	128.0	128.0	340204.6813964844	1.1147827E7	55.292767917247765	766660.0	
757355.0	54.621676161489034	128.0	128.0	340205.6579589844	1.1147859E7	55.299258863837586	766750.0	
757580.0	54.63790352796359	128.0	128.0	340206.6345214844	1.1147891E7	55.30538920228353	766835.0	
757575.0	54.63754291981971	128.0	128.0	340207.6110839844	1.1147923E7	55.30863467557844	766880.0	
757135.0	54.60580940315836	128.0	128.0	340208.5876464844	1.1147955E7	55.32666508277239	767130.0	
758335.0	54.69235535768931	128.0	128.0	340209.5642089844	1.1147987E7	55.327025690916265	767135.0	
757840.0	54.65665515144529	128.0	128.0	340210.5407714844	1.1148019E7	55.330992380498934	767190.0	
756845.0	54.58489413081338	128.0	128.0	340211.5173339844	1.1148051E7	55.337122718944876	767275.0	
758040.0	54.67107947720045	128.0	128.0	340212.4938964844	1.1148083E7	55.32558325834075	767115.0	
757080.0	54.60184271357569	128.0	128.0	340213.4704589844	1.1148115E7	55.31260136516111	766935.0	
757720.0	54.6480005559922	128.0	128.0	340214.4470214844	1.1148147E7	55.29853764754983	766740.0	
757450.0	54.628527716222735	128.0	128.0	340215.4235839844	1.1148179E7	55.28735879508958	766585.0	
757040.0	54.59895784842466	128.0	128.0	340216.4001464844	1.1148211E7	55.27437690190994	766405.0	
757765.0	54.65124602928711	128.0	128.0	340217.3767089844	1.1148243E7	55.2750981181977	766415.0	
757485.0	54.63105197322989	128.0	128.0	340218.3532714844	1.1148275E7	55.296373998686555	766710.0	
756160.0	54.535490815101966	128.0	128.0	340219.3298339844	1.1148307E7	55.312961973304986	766940.0	
755430.0	54.48284202609564	128.0	128.0	340220.3063964844	1.1148339E7	55.32666508277239	767130.0	
755735.0	54.504839122872255	128.0	128.0	340221.2829589844	1.1148371E7	55.32522265019687	767110.0	
756235.0	54.54089993726015	128.0	128.0	340222.2595214844	1.1148403E7	55.337843935232634	767285.0	
757305.0	54.618070080050245	128.0	128.0	340223.2360839844	1.1148435E7	55.32558325834075	767115.0	
757420.0	54.62636406735946	128.0	128.0	340224.2126464844	1.1148467E7	55.34830157140512	767430.0	
756465.0	54.55748791187858	128.0	128.0	340225.1892089844	1.1148499E7	55.35298947727555	767495.0	
757205.0	54.610857917172666	128.0	128.0	340226.1657714844	1.1148531E7	55.35371069356331	767505.0	
757185.0	54.60941548459715	128.0	128.0	340227.1423339844	1.1148563E7	55.354431909851066	767515.0	
757215.0	54.611579133460424	128.0	128.0	340228.1188964844	1.1148595E7	55.35335008541943	767500.0	
757930.0	54.663146098035114	128.0	128.0	340229.0954589844	1.1148627E7	55.37426535776441	767790.0	
756950.0	54.59246690183484	128.0	128.0	340230.0720214844	1.1148659E7	55.38688664280017	767965.0	
756305.0	54.545948451274455	128.0	128.0	340231.0485839844	1.1148691E7	55.38436238579302	767930.0	
757975.0	54.666391571330024	128.0	128.0	340232.0251464844	1.1148723E7	55.364528937879676	767655.0	
757925.0	54.662785489891235	128.0	128.0	340233.0017089844	1.1148755E7	55.35407130170719	767510.0	
757950.0	54.66458853061063	128.0	128.0	340233.9782714844	1.1148787E7	55.34830157140512	767430.0	
757450.0	54.628527716222735	128.0	128.0	340234.9548339844	1.1148819E7	55.33964697595203	767310.0	
757160.0	54.607612443877755	128.0	128.0	340235.9313964844	1.1148851E7	55.32918933977954	767165.0	
757900.0	54.66098244917184	128.0	128.0	340236.9079589844	1.1148883E7	55.3281075153479	767150.0	
757330.0	54.61987312076964	128.0	128.0	340237.8845214844	1.1148915E7	55.32161656875808	767060.0	
756415.0	54.55388183043979	128.0	128.0	340238.8610839844	1.1148947E7	55.34325305739082	767360.0	
758120.0	54.676849207502514	128.0	128.0	340239.8376464844	1.1148979E7	55.34685913882961	767410.0	
757640.0	54.642230825690135	128.0	128.0	340240.8142089844	1.1149011E7	55.35695616685822	767550.0	
757165.0	54.607973052021634	128.0	128.0	340241.7907714844	1.1149043E7	55.3641683297358	767650.0	
757590.0	54.638624744251345	128.0	128.0	340242.7673339844	1.1149075E7	55.3710198844695	767745.0	
757480.0	54.63069136508601	128.0	128.0	340243.7438964844	1.1149107E7	55.378953263634834	767855.0	
757620.0	54.64078839311462	128.0	128.0	340244.7204589844	1.1149139E7	55.3915745486706	768030.0	
757805.0	54.65413089443814	128.0	128.0	340245.6970214844	1.1149171E7	55.395901846397145	768090.0	
757900.0	54.66098244917184	128.0	128.0	340246.6735839844	1.1149203E7	55.40167157669921	768170.0	
756940.0	54.59174568554708	128.0	128.0	340247.6501464844	1.1149235E7	55.40852313143291	768265.0	
757730.0	54.648721772279956	128.0	128.0	340248.6267089844	1.1149267E7	55.4189807676054	768410.0	
757305.0	54.618070080050245	128.0	128.0	340249.6032714844	1.1149299E7	55.426192930482976	768510.0	
758295.0	54.68947049253828	128.0	128.0	340250.5798339844	1.1149331E7	55.43160205264116	768585.0	
758180.0	54.68117650522906	128.0	128.0	340251.5563964844	1.1149363E7	55.42907779563401	768550.0	
757415.0	54.62600345921558	128.0	128.0	340252.5329589844	1.1149395E7	55.42547171419522	768500.0	
758140.0	54.67829164007803	128.0	128.0	340253.5095214844	1.1149427E7	55.41176860472782	768310.0	
757745.0	54.64980359671159	128.0	128.0	340254.4860839844	1.1149459E7	55.39806549526042	768120.0	
757895.0	54.66062184102796	128.0	128.0	340255.4626464844	1.1149491E7	55.388689683519566	767990.0	
757720.0	54.6480005559922	128.0	128.0	340256.4392089844	1.1149523E7	55.38724725094405	767970.0	
757130.0	54.60544879501448	128.0	128.0	340257.4157714844	1.1149555E7	55.378592655490955	767850.0	
757005.0	54.59643359141751	128.0	128.0	340258.3923339844	1.1149587E7	55.38255934507362	767905.0	
757995.0	54.66783400390554	128.0	128.0	340259.3688964844	1.1149619E7	55.40419583370636	768205.0	
758140.0	54.67829164007803	128.0	128.0	340260.3454589844	1.1149651E7	55.416817118742124	768380.0	
757310.0	54.618430688194124	128.0	128.0	340261.3220214844	1.1149683E7	55.42727475491461	768525.0	
757095.0	54.60292453800733	128.0	128.0	340262.2985839844	1.1149715E7	55.43917482366262	768690.0	
758110.0	54.676127991214756	128.0	128.0	340263.2751464844	1.1149747E7	55.44602637839632	768785.0	
757450.0	54.628527716222735	128.0	128.0	340264.2517089844	1.1149779E7	55.45576279828105	768920.0	
757430.0	54.62708528364722	128.0	128.0	340265.2282714844	1.1149811E7	55.47271138104336	769155.0	
757560.0	54.63646109538807	128.0	128.0	340266.2048339844	1.1149843E7	55.45648401456881	768930.0	
757625.0	54.6411490012585	128.0	128.0	340267.1813964844	1.1149875E7	55.44819002725959	768815.0	
756700.0	54.57443649464089	128.0	128.0	340268.1579589844	1.1149907E7	55.48497205793525	769325.0	
755655.0	54.49906939257019	128.0	128.0	340269.1345214844	1.1149939E7	55.504084289560836	769590.0	
756070.0	54.528999868512145	128.0	128.0	340270.1110839844	1.1149971E7	55.50696915471187	769630.0	
755755.0	54.50628155544777	128.0	128.0	340271.0876464844	1.1150003E7	55.5030024651292	769575.0	
756755.0	54.57840318422356	128.0	128.0	340272.0642089844	1.1150035E7	55.48857813937404	769375.0	
756695.0	54.57407588649701	128.0	128.0	340273.0407714844	1.1150067E7	55.494347869676105	769455.0	
757375.0	54.62311859406455	128.0	128.0	340274.0173339844	1.1150099E7	55.46910529960457	769105.0	
756915.0	54.58994264482769	128.0	128.0	340274.9938964844	1.1150131E7	55.46369617744639	769030.0	
756400.0	54.552800006008155	128.0	128.0	340275.9704589844	1.1150163E7	55.460811312295355	768990.0	
756675.0	54.5726334539215	128.0	128.0	340276.9470214844	1.1150195E7	55.444223337676924	768760.0	
757185.0	54.60941548459715	128.0	128.0	340277.9235839844	1.1150227E7	55.44314151324529	768745.0	
757070.0	54.601121497287934	128.0	128.0	340278.9001464844	1.1150259E7	55.473793205475	769170.0	
757395.0	54.624561026640066	128.0	128.0	340279.8767089844	1.1150291E7	55.47054773218009	769125.0	
757345.0	54.62095494520128	128.0	128.0	340280.8532714844	1.1150323E7	55.49146300452507	769415.0	
757950.0	54.66458853061063	128.0	128.0	340281.8298339844	1.1150355E7	55.483529625359736	769305.0	
757005.0	54.59643359141751	128.0	128.0	340282.8063964844	1.1150387E7	55.5030024651292	769575.0	
757050.0	54.59967906471242	128.0	128.0	340283.7829589844	1.1150419E7	55.51598435830884	769755.0	
756750.0	54.57804257607968	128.0	128.0	340284.7595214844	1.1150451E7	55.51706618274048	769770.0	
756775.0	54.579845616799076	128.0	128.0	340285.7360839844	1.1150483E7	55.539063279517094	770075.0	
757880.0	54.659540016596324	128.0	128.0	340286.7126464844	1.1150515E7	55.5235571293303	769860.0	
756680.0	54.572994062065376	128.0	128.0	340287.6892089844	1.1150547E7	55.54158753652425	770110.0	
757015.0	54.597154807705266	128.0	128.0	340288.6657714844	1.1150579E7	55.55817551114268	770340.0	
757830.0	54.655933935157535	128.0	128.0	340289.6423339844	1.1150611E7	55.55709368671104	770325.0	
756865.0	54.5863365633889	128.0	128.0	340290.6188964844	1.1150643E7	55.55420882156001	770285.0	
757950.0	54.66458853061063	128.0	128.0	340291.5954589844	1.1150675E7	55.552405780840616	770260.0	
756705.0	54.57479710278477	128.0	128.0	340292.5720214844	1.1150707E7	55.545554226106916	770165.0	
758010.0	54.66891582833718	128.0	128.0	340293.5485839844	1.1150739E7	55.53762084694158	770055.0	
757025.0	54.597876023993024	128.0	128.0	340294.5251464844	1.1150771E7	55.51995104789151	769810.0	
757020.0	54.597515415849145	128.0	128.0	340295.5017089844	1.1150803E7	55.52391773747418	769865.0	
756315.0	54.54666966756221	128.0	128.0	340296.4782714844	1.1150835E7	55.52067226417927	769820.0	
757185.0	54.60941548459715	128.0	128.0	340297.4548339844	1.1150867E7	55.50696915471187	769630.0	
757545.0	54.635379270956435	128.0	128.0	340298.4313964844	1.1150899E7	55.514541925733326	769735.0	
757670.0	54.64439447455341	128.0	128.0	340299.4079589844	1.1150931E7	55.528966251488484	769935.0	
756385.0	54.55171818157652	128.0	128.0	340300.3845214844	1.1150963E7	55.54663605053855	770180.0	
757810.0	54.65449150258202	128.0	128.0	340301.3610839844	1.1150995E7	55.55060274012122	770235.0	
755895.0	54.51637858347638	128.0	128.0	340302.3376464844	1.1151027E7	55.569354363602926	770495.0	
757745.0	54.64980359671159	128.0	128.0	340303.3142089844	1.1151059E7	55.56394524144474	770420.0	
757770.0	54.65160663743099	128.0	128.0	340304.2907714844	1.1151091E7	55.58233625678257	770675.0	
756315.0	54.54666966756221	128.0	128.0	340305.2673339844	1.1151123E7	55.59099085223566	770795.0	
757255.0	54.614463998611456	128.0	128.0	340306.2438964844	1.1151155E7	55.593515109242816	770830.0	
757505.0	54.6324944058054	128.0	128.0	340307.2204589844	1.1151187E7	55.59099085223566	770795.0	
757050.0	54.59967906471242	128.0	128.0	340308.1970214844	1.1151219E7	55.61298794901228	771100.0	
756905.0	54.58922142853993	128.0	128.0	340309.1735839844	1.1151251E7	55.614430381587795	771120.0	
757470.0	54.62997014879825	128.0	128.0	340310.1501464844	1.1151283E7	55.61839707117046	771175.0	
756930.0	54.591024469259324	128.0	128.0	340311.1267089844	1.1151315E7	55.61983950374598	771195.0	
757080.0	54.60184271357569	128.0	128.0	340312.1032714844	1.1151347E7	55.60902125942961	771045.0	
757215.0	54.611579133460424	128.0	128.0	340313.0798339844	1.1151379E7	55.60180909655203	770945.0	
756970.0	54.593909334410355	128.0	128.0	340314.0563964844	1.1151411E7	55.610824300149005	771070.0	
756070.0	54.528999868512145	128.0	128.0	340315.0329589844	1.1151443E7	55.58161504049481	770665.0	
756790.0	54.58092744123071	128.0	128.0	340316.0095214844	1.1151475E7	55.57909078348766	770630.0	
756785.0	54.580566833086834	128.0	128.0	340316.9860839844	1.1151507E7	55.57873017534378	770625.0	
756575.0	54.56542129104392	128.0	128.0	340317.9626464844	1.1151539E7	55.598924231401	770905.0	
755630.0	54.4972663518508	128.0	128.0	340318.9392089844	1.1151571E7	55.61551220601943	771135.0	
754875.0	54.44281452212507	128.0	128.0	340319.9157714844	1.1151603E7	55.63426382950114	771395.0	
755625.0	54.49690574370692	128.0	128.0	340320.8923339844	1.1151635E7	55.6331820050695	771380.0	
755865.0	54.51421493461311	128.0	128.0	340321.8688964844	1.1151667E7	55.64111538423484	771490.0	
756690.0	54.573715278353134	128.0	128.0	340322.8454589844	1.1151699E7	55.64652450639302	771565.0	
755795.0	54.5091664205988	128.0	128.0	340323.8220214844	1.1151731E7	55.66022761586042	771755.0	
756450.0	54.556406087446945	128.0	128.0	340324.7985839844	1.1151763E7	55.66347308915533	771800.0	
756505.0	54.56037277702961	128.0	128.0	340325.7751464844	1.1151795E7	55.66852160316964	771870.0	
756690.0	54.573715278353134	128.0	128.0	340326.7517089844	1.1151827E7	55.6742913334717	771950.0	
756710.0	54.57515771092865	128.0	128.0	340327.7282714844	1.1151859E7	55.682585320780916	772065.0	
756395.0	54.552439397864276	128.0	128.0	340328.7048339844	1.1151891E7	55.68547018593195	772105.0	
757720.0	54.6480005559922	128.0	128.0	340329.6813964844	1.1151923E7	55.69881268725547	772290.0	
757125.0	54.6050881868706	128.0	128.0	340330.6579589844	1.1151955E7	55.697009646536074	772265.0	
757745.0	54.64980359671159	128.0	128.0	340331.6345214844	1.1151987E7	55.696288430248316	772255.0	
757510.0	54.63285501394928	128.0	128.0	340332.6110839844	1.1152019E7	55.683306537068674	772075.0	
757090.0	54.60256392986345	128.0	128.0	340333.5876464844	1.1152051E7	55.67393072532782	771945.0	
756775.0	54.579845616799076	128.0	128.0	340334.5642089844	1.1152083E7	55.6605882240043	771760.0	
757375.0	54.62311859406455	128.0	128.0	340335.5407714844	1.1152115E7	55.648688155256295	771595.0	
757125.0	54.6050881868706	128.0	128.0	340336.5173339844	1.1152147E7	55.65013058783181	771615.0	
757160.0	54.607612443877755	128.0	128.0	340337.4938964844	1.1152179E7	55.64652450639302	771565.0	
756525.0	54.56181520960513	128.0	128.0	340338.4704589844	1.1152211E7	55.65337606112672	771660.0	
757120.0	54.604727578726724	128.0	128.0	340339.4470214844	1.1152243E7	55.668882211313516	771875.0	
756500.0	54.560012168885734	128.0	128.0	340340.4235839844	1.1152275E7	55.679700455629884	772025.0	
756520.0	54.56145460146125	128.0	128.0	340341.4001464844	1.1152307E7	55.689797483658495	772165.0	
756450.0	54.556406087446945	128.0	128.0	340342.3767089844	1.1152339E7	55.69448538952892	772230.0	
757105.0	54.60364575429509	128.0	128.0	340343.3532714844	1.1152371E7	55.69737025467995	772270.0	
757255.0	54.614463998611456	128.0	128.0	340344.3298339844	1.1152403E7	55.713958229298385	772500.0	
756930.0	54.591024469259324	128.0	128.0	340345.3063964844	1.1152435E7	55.7222522166076	772615.0	
756240.0	54.54126054540403	128.0	128.0	340346.2829589844	1.1152467E7	55.7291037713413	772710.0	
756890.0	54.58813960410829	128.0	128.0	340347.2595214844	1.1152499E7	55.727300730621906	772685.0	
757045.0	54.59931845656854	128.0	128.0	340348.2360839844	1.1152531E7	55.734152285355606	772780.0	
756910.0	54.58958203668381	128.0	128.0	340349.2126464844	1.1152563E7	55.76660701830471	773230.0	
756045.0	54.52719682779275	128.0	128.0	340350.1892089844	1.1152595E7	55.75578877398834	773080.0	
757420.0	54.62636406735946	128.0	128.0	340351.1657714844	1.1152627E7	55.7633615450098	773185.0	
755720.0	54.50375729844062	128.0	128.0	340352.1423339844	1.1152659E7	55.76732823459247	773240.0	
756585.0	54.566142507331676	128.0	128.0	340353.1188964844	1.1152691E7	55.741364448233185	772880.0	
756420.0	54.55424243858367	128.0	128.0	340354.0954589844	1.1152723E7	55.74316748895258	772905.0	
756460.0	54.5571273037347	128.0	128.0	340355.0720214844	1.1152755E7	55.72513708175863	772655.0	
757335.0	54.62023372891352	128.0	128.0	340356.0485839844	1.1152787E7	55.72513708175863	772655.0	
757015.0	54.597154807705266	128.0	128.0	340357.0251464844	1.1152819E7	55.73631593421888	772810.0	
756530.0	54.56217581774901	128.0	128.0	340358.0017089844	1.1152851E7	55.72621890619027	772670.0	
756775.0	54.579845616799076	128.0	128.0	340358.9782714844	1.1152883E7	55.75037965183016	773005.0	
756155.0	54.53513020695809	128.0	128.0	340359.9548339844	1.1152915E7	55.76949188345574	773270.0	
757555.0	54.63610048724419	128.0	128.0	340360.9313964844	1.1152947E7	55.765525193873074	773215.0	
756335.0	54.54811210013773	128.0	128.0	340361.9079589844	1.1152979E7	55.789685939512964	773550.0	
756930.0	54.591024469259324	128.0	128.0	340362.8845214844	1.1153011E7	55.78499803364254	773485.0	
756005.0	54.52431196264172	128.0	128.0	340363.8610839844	1.1153043E7	55.79906175125382	773680.0	
756160.0	54.535490815101966	128.0	128.0	340364.8376464844	1.1153075E7	55.81601033401613	773915.0	
756115.0	54.532245341807055	128.0	128.0	340365.8142089844	1.1153107E7	55.804470873412	773755.0	
756430.0	54.55496365487143	128.0	128.0	340366.7907714844	1.1153139E7	55.83115587605904	774125.0	
754845.0	54.440650873261795	128.0	128.0	340367.7673339844	1.1153171E7	55.84485898552644	774315.0	
755200.0	54.4662540514772	128.0	128.0	340368.7438964844	1.1153203E7	55.85531662169893	774460.0	
754940.0	54.447502427995495	128.0	128.0	340369.7204589844	1.1153235E7	55.865053041583664	774595.0	
754835.0	54.43992965697404	128.0	128.0	340370.6970214844	1.1153267E7	55.868659123022454	774645.0	
755965.0	54.52142709749069	128.0	128.0	340371.6735839844	1.1153299E7	55.857480270562206	774490.0	
755820.0	54.5109694613182	128.0	128.0	340372.6501464844	1.1153331E7	55.84305594480705	774290.0	
755930.0	54.518902840483534	128.0	128.0	340373.6267089844	1.1153363E7	55.84161351223153	774270.0	
755105.0	54.4594024967435	128.0	128.0	340374.6032714844	1.1153395E7	55.819977023598796	773970.0	
756470.0	54.55784852002246	128.0	128.0	340375.5798339844	1.1153427E7	55.80591330598752	773775.0	
755555.0	54.49185722969261	128.0	128.0	340376.5563964844	1.1153459E7	55.81168303628958	773855.0	
756305.0	54.545948451274455	128.0	128.0	340377.5329589844	1.1153491E7	55.81096182000182	773845.0	
756620.0	54.56866676433883	128.0	128.0	340378.5095214844	1.1153523E7	55.83151648420292	774130.0	
755985.0	54.5228695300662	128.0	128.0	340379.4860839844	1.1153555E7	55.8387286470805	774230.0	
756570.0	54.56506068290004	128.0	128.0	340380.4626464844	1.1153587E7	55.857480270562206	774490.0	
755310.0	54.47418743064254	128.0	128.0	340381.4392089844	1.1153619E7	55.86252878457651	774560.0	
756555.0	54.5639788584684	128.0	128.0	340382.4157714844	1.1153651E7	55.86288939272039	774565.0	
756875.0	54.587057779676655	128.0	128.0	340383.3923339844	1.1153683E7	55.88741074650416	774905.0	
756585.0	54.566142507331676	128.0	128.0	340384.3688964844	1.1153715E7	55.892098652374585	774970.0	
756920.0	54.590303252971566	128.0	128.0	340385.3454589844	1.1153747E7	55.90471993741035	775145.0	
756520.0	54.56145460146125	128.0	128.0	340386.3220214844	1.1153779E7	55.90868662699302	775200.0	
756250.0	54.54198176169179	128.0	128.0	340387.2985839844	1.1153811E7	55.909768451424654	775215.0	
756225.0	54.54017872097239	128.0	128.0	340388.2751464844	1.1153843E7	55.94222318437376	775665.0	
756880.0	54.587418387820534	128.0	128.0	340389.2517089844	1.1153875E7	55.94294440066152	775675.0	
756395.0	54.552439397864276	128.0	128.0	340390.2282714844	1.1153907E7	55.957008118272796	775870.0	
757095.0	54.60292453800733	128.0	128.0	340391.2048339844	1.1153939E7	55.954123253121764	775830.0	
757290.0	54.61698825561861	128.0	128.0	340392.1813964844	1.1153971E7	55.94655048210031	775725.0	
756645.0	54.570469805058224	128.0	128.0	340393.1579589844	1.1154003E7	55.93212615634515	775525.0	
757250.0	54.61410339046758	128.0	128.0	340394.1345214844	1.1154035E7	55.93140494005739	775515.0	
756435.0	54.55532426301531	128.0	128.0	340395.1110839844	1.1154067E7	55.936453454071696	775585.0	
757215.0	54.611579133460424	128.0	128.0	340396.0876464844	1.1154099E7	55.92419277717981	775415.0	
756765.0	54.57912440051132	128.0	128.0	340397.0642089844	1.1154131E7	55.92527460161145	775430.0	
756365.0	54.550275749001	128.0	128.0	340398.0407714844	1.1154163E7	55.940059535510485	775635.0	
756645.0	54.570469805058224	128.0	128.0	340399.0173339844	1.1154195E7	55.96025359156771	775915.0	
756765.0	54.57912440051132	128.0	128.0	340399.9938964844	1.1154227E7	55.957729334560554	775880.0	
756740.0	54.577321359791924	128.0	128.0	340400.9704589844	1.1154259E7	55.96999001145244	776050.0	
755905.0	54.51709979976414	128.0	128.0	340401.9470214844	1.1154291E7	55.98513555349536	776260.0	
757075.0	54.60148210543181	128.0	128.0	340402.9235839844	1.1154323E7	55.99919927110664	776455.0	
756460.0	54.5571273037347	128.0	128.0	340403.9001464844	1.1154355E7	56.014344813149556	776665.0	
756625.0	54.56902737248271	128.0	128.0	340404.8767089844	1.1154387E7	56.02011454345162	776745.0	
756870.0	54.58669717153278	128.0	128.0	340405.8532714844	1.1154419E7	56.02083575973938	776755.0	
755975.0	54.522148313778445	128.0	128.0	340406.8298339844	1.1154451E7	56.031654004055746	776905.0	
756840.0	54.5845335226695	128.0	128.0	340407.8063964844	1.1154483E7	56.04139042394048	777040.0	
756250.0	54.54198176169179	128.0	128.0	340408.7829589844	1.1154515E7	56.06050265556606	777305.0	
756370.0	54.55063635714488	128.0	128.0	340409.7595214844	1.1154547E7	56.063026912573214	777340.0	
756590.0	54.566503115475555	128.0	128.0	340410.7360839844	1.1154579E7	56.05797839855891	777270.0	
755850.0	54.51313311018147	128.0	128.0	340411.7126464844	1.1154611E7	56.05797839855891	777270.0	
756420.0	54.55424243858367	128.0	128.0	340412.6892089844	1.1154643E7	56.048963194961935	777145.0	
755810.0	54.51024824503044	128.0	128.0	340413.6657714844	1.1154675E7	56.05076623568133	777170.0	
756395.0	54.552439397864276	128.0	128.0	340414.6423339844	1.1154707E7	56.02985096333635	776880.0	
756840.0	54.5845335226695	128.0	128.0	340415.6188964844	1.1154739E7	56.03453886920678	776945.0	
755735.0	54.504839122872255	128.0	128.0	340416.5954589844	1.1154771E7	56.03057217962411	776890.0	
755470.0	54.48572689124667	128.0	128.0	340417.5720214844	1.1154803E7	56.042111640228235	777050.0	
754285.0	54.40026276114735	128.0	128.0	340418.5485839844	1.1154835E7	56.05761779041503	777265.0	
754570.0	54.42081742534845	128.0	128.0	340419.5251464844	1.1154867E7	56.07745123832837	777540.0	
754550.0	54.41937499277294	128.0	128.0	340420.5017089844	1.1154899E7	56.08502400934983	777645.0	
754795.0	54.437044791823006	128.0	128.0	340421.4782714844	1.1154931E7	56.086466441925346	777665.0	
755590.0	54.494381486699766	128.0	128.0	340422.4548339844	1.1154963E7	56.090433131508014	777720.0	
754860.0	54.44173269769343	128.0	128.0	340423.4313964844	1.1154995E7	56.096563469953956	777805.0	
755450.0	54.484284458671155	128.0	128.0	340424.4079589844	1.1155027E7	56.114593877147904	778055.0	
755060.0	54.45615702344859	128.0	128.0	340425.3845214844	1.1155059E7	56.124690905176514	778195.0	
755125.0	54.460844929319016	128.0	128.0	340426.3610839844	1.1155091E7	56.128296986615304	778245.0	
755905.0	54.51709979976414	128.0	128.0	340427.3376464844	1.1155123E7	56.12613333775203	778215.0	
756385.0	54.55171818157652	128.0	128.0	340428.3142089844	1.1155155E7	56.13406671691737	778325.0	
756510.0	54.56073338517349	128.0	128.0	340429.2907714844	1.1155187E7	56.15714563812562	778645.0	
755470.0	54.48572689124667	128.0	128.0	340430.2673339844	1.1155219E7	56.16075171956441	778695.0	
755430.0	54.48284202609564	128.0	128.0	340431.2438964844	1.1155251E7	56.155342597406225	778620.0	
756120.0	54.532605949950934	128.0	128.0	340432.2204589844	1.1155283E7	56.14957286710416	778540.0	
755670.0	54.50015121700183	128.0	128.0	340433.1970214844	1.1155315E7	56.14272131237046	778445.0	
756080.0	54.5297210847999	128.0	128.0	340434.1735839844	1.1155347E7	56.141278879794946	778425.0	
756615.0	54.56830615619495	128.0	128.0	340435.1501464844	1.1155379E7	56.14272131237046	778445.0	
756740.0	54.577321359791924	128.0	128.0	340436.1267089844	1.1155411E7	56.13406671691737	778325.0	
755580.0	54.49366027041201	128.0	128.0	340437.1032714844	1.1155443E7	56.131181851766335	778285.0	
755350.0	54.47707229579357	128.0	128.0	340438.0798339844	1.1155475E7	56.14055766350719	778415.0	
755825.0	54.511330069462076	128.0	128.0	340439.0563964844	1.1155507E7	56.1643578010032	778745.0	
756630.0	54.56938798062659	128.0	128.0	340440.0329589844	1.1155539E7	56.182748816341025	779000.0	
756090.0	54.53044230108766	128.0	128.0	340441.0095214844	1.1155571E7	56.19104280365024	779115.0	
755885.0	54.51565736718862	128.0	128.0	340441.9860839844	1.1155603E7	56.193206452513515	779145.0	
756300.0	54.545587843130576	128.0	128.0	340442.9626464844	1.1155635E7	56.217367198153404	779480.0	
756120.0	54.532605949950934	128.0	128.0	340443.9392089844	1.1155667E7	56.23359456462796	779705.0	
755200.0	54.4662540514772	128.0	128.0	340444.9157714844	1.1155699E7	56.247658282239236	779900.0	
756280.0	54.54414541055506	128.0	128.0	340445.8923339844	1.1155731E7	56.24729767409536	779895.0	
756380.0	54.55135757343264	128.0	128.0	340446.8688964844	1.1155763E7	56.24549463337596	779870.0	
755955.0	54.52070588120293	128.0	128.0	340447.8454589844	1.1155795E7	56.25991895913112	780070.0	
756585.0	54.566142507331676	128.0	128.0	340448.8220214844	1.1155827E7	56.27434328488628	780270.0	
756305.0	54.545948451274455	128.0	128.0	340449.7985839844	1.1155859E7	56.28335848848325	780395.0	
756765.0	54.57912440051132	128.0	128.0	340450.7751464844	1.1155891E7	56.28804639435368	780460.0	
756790.0	54.58092744123071	128.0	128.0	340451.7517089844	1.1155923E7	56.28371909662713	780400.0	
756215.0	54.539457504684634	128.0	128.0	340452.7282714844	1.1155955E7	56.275064501174036	780280.0	
757110.0	54.604006362438966	128.0	128.0	340453.7048339844	1.1155987E7	56.27326146045464	780255.0	
755885.0	54.51565736718862	128.0	128.0	340454.6813964844	1.1156019E7	56.26244321613827	780105.0	
756820.0	54.58309109009399	128.0	128.0	340455.6579589844	1.1156051E7	56.264967473145425	780140.0	
755685.0	54.501233041433466	128.0	128.0	340456.6345214844	1.1156083E7	56.268934162728094	780195.0	
755670.0	54.50015121700183	128.0	128.0	340457.6110839844	1.1156115E7	56.275064501174036	780280.0	
756235.0	54.54089993726015	128.0	128.0	340458.5876464844	1.1156147E7	56.285522137346526	780425.0	
755870.0	54.51457554275699	128.0	128.0	340459.5642089844	1.1156179E7	56.30751923412314	780730.0	
756080.0	54.5297210847999	128.0	128.0	340460.5407714844	1.1156211E7	56.299225246813926	780615.0	
755615.0	54.49618452741916	128.0	128.0	340461.5173339844	1.1156243E7	56.320140519158905	780905.0	
757160.0	54.607612443877755	128.0	128.0	340462.4938964844	1.1156275E7	56.3219435598783	780930.0	
756740.0	54.577321359791924	128.0	128.0	340463.4704589844	1.1156307E7	56.33312241233855	781085.0	
756160.0	54.535490815101966	128.0	128.0	340464.4470214844	1.1156339E7	56.35656194169068	781410.0	
755750.0	54.50592094730389	128.0	128.0	340465.4235839844	1.1156371E7	56.36701957786317	781555.0	
756270.0	54.5434241942673	128.0	128.0	340466.4001464844	1.1156403E7	56.37639538960402	781685.0	
754780.0	54.43596296739137	128.0	128.0	340467.3767089844	1.1156435E7	56.402359175963305	782045.0	
754510.0	54.416490127621906	128.0	128.0	340468.3532714844	1.1156467E7	56.419307758725616	782280.0	
754220.0	54.39557485527693	128.0	128.0	340469.3298339844	1.1156499E7	56.4315684356175	782450.0	
754760.0	54.43452053481585	128.0	128.0	340470.3063964844	1.1156531E7	56.42904417861035	782415.0	
755190.0	54.46553283518944	128.0	128.0	340471.2829589844	1.1156563E7	56.42399566459604	782345.0	
755535.0	54.4904147971171	128.0	128.0	340472.2595214844	1.1156595E7	56.402719784107184	782050.0	
756255.0	54.542342369835666	128.0	128.0	340473.2360839844	1.1156627E7	56.39406518865409	781930.0	
756200.0	54.538375680253	128.0	128.0	340474.2126464844	1.1156659E7	56.39406518865409	781930.0	
755355.0	54.47743290393745	128.0	128.0	340475.1892089844	1.1156691E7	56.38757424206427	781840.0	
756535.0	54.56253642589289	128.0	128.0	340476.1657714844	1.1156723E7	56.385410593200994	781810.0	
756040.0	54.52683621964887	128.0	128.0	340477.1423339844	1.1156755E7	56.39118032350306	781890.0	
755305.0	54.47382682249866	128.0	128.0	340478.1188964844	1.1156787E7	56.395507621229605	781950.0	
756535.0	54.56253642589289	128.0	128.0	340479.0954589844	1.1156819E7	56.412456203991916	782185.0	
756960.0	54.5931881181226	128.0	128.0	340480.0720214844	1.1156851E7	56.41894715058174	782275.0	
756100.0	54.53116351737542	128.0	128.0	340481.0485839844	1.1156883E7	56.42543809717156	782365.0	
755830.0	54.511690677605955	128.0	128.0	340482.0251464844	1.1156915E7	56.44130485550223	782585.0	
756340.0	54.54847270828161	128.0	128.0	340483.0017089844	1.1156947E7	56.45933526269618	782835.0	
755675.0	54.50051182514571	128.0	128.0	340483.9782714844	1.1156979E7	56.47087472330031	782995.0	
756970.0	54.593909334410355	128.0	128.0	340484.9548339844	1.1157011E7	56.476644453602376	783075.0	
756390.0	54.5520787897204	128.0	128.0	340485.9313964844	1.1157043E7	56.473759588451344	783035.0	
756425.0	54.55460304672755	128.0	128.0	340486.9079589844	1.1157075E7	56.48529904905547	783195.0	
756995.0	54.59571237512975	128.0	128.0	340487.8845214844	1.1157107E7	56.49792033409123	783370.0	
756290.0	54.54486662684282	128.0	128.0	340488.8610839844	1.1157139E7	56.51955682272397	783670.0	
756380.0	54.55135757343264	128.0	128.0	340489.8376464844	1.1157171E7	56.517753782004576	783645.0	
756670.0	54.57227284577762	128.0	128.0	340490.8142089844	1.1157203E7	56.51378709242191	783590.0	
756690.0	54.573715278353134	128.0	128.0	340491.7907714844	1.1157235E7	56.5155901331413	783615.0	
755970.0	54.521787705634566	128.0	128.0	340492.7673339844	1.1157267E7	56.5087385784076	783520.0	
756175.0	54.5365726395336	128.0	128.0	340493.7438964844	1.1157299E7	56.507656753975965	783505.0	
756430.0	54.55496365487143	128.0	128.0	340494.7204589844	1.1157331E7	56.50008398295451	783400.0	
755740.0	54.505199731016134	128.0	128.0	340495.6970214844	1.1157363E7	56.49539607708408	783335.0	
756270.0	54.5434241942673	128.0	128.0	340496.6735839844	1.1157395E7	56.49539607708408	783335.0	
756650.0	54.5708304132021	128.0	128.0	340497.6501464844	1.1157427E7	56.49972337481063	783395.0	
756355.0	54.549554532713245	128.0	128.0	340498.6267089844	1.1157459E7	56.50477188882493	783465.0	
756510.0	54.56073338517349	128.0	128.0	340499.6032714844	1.1157491E7	56.52893263446482	783800.0	
756185.0	54.53729385582136	128.0	128.0	340500.5798339844	1.1157523E7	56.54263574393222	783990.0	
756330.0	54.54775149199385	128.0	128.0	340501.5563964844	1.1157555E7	56.548766082378165	784075.0	
756265.0	54.543063586123424	128.0	128.0	340502.5329589844	1.1157587E7	56.55742067783126	784195.0	
757195.0	54.61013670088491	128.0	128.0	340503.5095214844	1.1157619E7	56.568960138435386	784355.0	
757095.0	54.60292453800733	128.0	128.0	340504.4860839844	1.1157651E7	56.580138990895634	784510.0	
756445.0	54.556045479303066	128.0	128.0	340505.4626464844	1.1157683E7	56.58951480263649	784640.0	
756340.0	54.54847270828161	128.0	128.0	340506.4392089844	1.1157715E7	56.600333046952855	784790.0	
756580.0	54.5657818991878	128.0	128.0	340507.4157714844	1.1157747E7	56.60177547952837	784810.0	
756190.0	54.53765446396524	128.0	128.0	340508.3923339844	1.1157779E7	56.6133149401325	784970.0	
756660.0	54.57155162948986	128.0	128.0	340509.3688964844	1.1157811E7	56.62990291475093	785200.0	
756100.0	54.53116351737542	128.0	128.0	340510.3454589844	1.1157843E7	56.6389181183479	785325.0	
755860.0	54.51385432646923	128.0	128.0	340511.3220214844	1.1157875E7	56.64360602421833	785390.0	
755685.0	54.501233041433466	128.0	128.0	340512.2985839844	1.1157907E7	56.637836293916266	785310.0	
756710.0	54.57515771092865	128.0	128.0	340513.2751464844	1.1157939E7	56.62233014372947	785095.0	
756070.0	54.528999868512145	128.0	128.0	340514.2517089844	1.1157971E7	56.61547858899577	785000.0	
756255.0	54.542342369835666	128.0	128.0	340515.2282714844	1.1158003E7	56.607184601686555	784885.0	
756900.0	54.58886082039605	128.0	128.0	340516.2048339844	1.1158035E7	56.614396764564134	784985.0	
754690.0	54.42947202080155	128.0	128.0	340517.1813964844	1.1158067E7	56.63639386134075	785290.0	
754590.0	54.42225985792397	128.0	128.0	340518.1579589844	1.1158099E7	56.648293930088755	785455.0	
754245.0	54.39737789599632	128.0	128.0	340519.1345214844	1.1158131E7	56.66416068841943	785675.0	
754755.0	54.434159926671974	128.0	128.0	340520.1110839844	1.1158163E7	56.66740616171434	785720.0	
755835.0	54.512051285749834	128.0	128.0	340521.0876464844	1.1158195E7	56.66956981057761	785750.0	
755260.0	54.47058134920375	128.0	128.0	340522.0642089844	1.1158227E7	56.69481238064914	786100.0	
755295.0	54.4731056062109	128.0	128.0	340523.0407714844	1.1158259E7	56.69445177250526	786095.0	
755440.0	54.4835632423834	128.0	128.0	340524.0173339844	1.1158291E7	56.71103974712369	786325.0	
754140.0	54.38980512497486	128.0	128.0	340524.9938964844	1.1158323E7	56.72330042401558	786495.0	
755215.0	54.46733587590884	128.0	128.0	340525.9704589844	1.1158355E7	56.72185799144006	786475.0	
755520.0	54.48933297268546	128.0	128.0	340526.9470214844	1.1158387E7	56.73808535791461	786700.0	
755595.0	54.494742094843645	128.0	128.0	340527.9235839844	1.1158419E7	56.7297913706054	786585.0	
756440.0	54.55568487115919	128.0	128.0	340528.9001464844	1.1158451E7	56.7640491442739	787060.0	
754560.0	54.420096209060695	128.0	128.0	340529.8767089844	1.1158483E7	56.77450678044639	787205.0	
755585.0	54.49402087855589	128.0	128.0	340530.8532714844	1.1158515E7	56.75287029181365	786905.0	
755920.0	54.518181624195776	128.0	128.0	340531.8298339844	1.1158547E7	56.76332792798614	787050.0	
754270.0	54.399180936715716	128.0	128.0	340532.8063964844	1.1158579E7	56.7690976582882	787130.0	
753920.0	54.37393836664419	128.0	128.0	340533.7829589844	1.1158611E7	56.76296731984226	787045.0	
754210.0	54.39485363898917	128.0	128.0	340534.7595214844	1.1158643E7	56.75250968366977	786900.0	
754855.0	54.44137208954955	128.0	128.0	340535.7360839844	1.1158675E7	56.7434944800728	786775.0	
754610.0	54.423702290499484	128.0	128.0	340536.7126464844	1.1158707E7	56.74998542666262	786865.0	
754345.0	54.4045900588739	128.0	128.0	340537.6892089844	1.1158739E7	56.73952779049013	786720.0	
755535.0	54.4904147971171	128.0	128.0	340538.6657714844	1.1158771E7	56.76368853613002	787055.0	
755955.0	54.52070588120293	128.0	128.0	340539.6423339844	1.1158803E7	56.76549157684941	787080.0	
755300.0	54.47346621435478	128.0	128.0	340540.6188964844	1.1158835E7	56.789291714345424	787410.0	
755315.0	54.474548038786416	128.0	128.0	340541.5954589844	1.1158867E7	56.792537187640335	787455.0	
756285.0	54.54450601869894	128.0	128.0	340542.5720214844	1.1158899E7	56.80479786453222	787625.0	
756340.0	54.54847270828161	128.0	128.0	340543.5485839844	1.1158931E7	56.80768272968325	787665.0	
755305.0	54.47382682249866	128.0	128.0	340544.5251464844	1.1158963E7	56.83869503005684	788095.0	
755975.0	54.522148313778445	128.0	128.0	340545.5017089844	1.1158995E7	56.826794961308835	787930.0	
755610.0	54.49582391927528	128.0	128.0	340546.4782714844	1.1159027E7	56.8307616508915	787985.0	
755625.0	54.49690574370692	128.0	128.0	340547.4548339844	1.1159059E7	56.83797381376908	788085.0	
755890.0	54.5160179753325	128.0	128.0	340548.4313964844	1.1159091E7	56.85528300467527	788325.0	
755650.0	54.49870878442631	128.0	128.0	340549.4079589844	1.1159123E7	56.86033151868958	788395.0	
755840.0	54.51241189389371	128.0	128.0	340550.3845214844	1.1159155E7	56.86213455940897	788420.0	
755195.0	54.46589344333332	128.0	128.0	340551.3610839844	1.1159187E7	56.86898611414267	788515.0	
756320.0	54.54703027570609	128.0	128.0	340552.3376464844	1.1159219E7	56.8599709105457	788390.0	
755820.0	54.5109694613182	128.0	128.0	340553.3142089844	1.1159251E7	56.8513163150926	788270.0	
755620.0	54.49654513556304	128.0	128.0	340554.2907714844	1.1159283E7	56.85239813952424	788285.0	
755950.0	54.52034527305905	128.0	128.0	340555.2673339844	1.1159315E7	56.836891989337445	788070.0	
755535.0	54.4904147971171	128.0	128.0	340556.2438964844	1.1159347E7	56.83292529975478	788015.0	
756695.0	54.57407588649701	128.0	128.0	340557.2204589844	1.1159379E7	56.83184347532314	788000.0	
756180.0	54.53693324767748	128.0	128.0	340558.1970214844	1.1159411E7	56.85023449066097	788255.0	
755170.0	54.46409040261393	128.0	128.0	340559.1735839844	1.1159443E7	56.8718709792937	788555.0	
755730.0	54.504478514728376	128.0	128.0	340560.1501464844	1.1159475E7	56.88629530504886	788755.0	
756050.0	54.52755743593663	128.0	128.0	340561.1267089844	1.1159507E7	56.89819537379687	788920.0	
755580.0	54.49366027041201	128.0	128.0	340562.1032714844	1.1159539E7	56.8787225340274	788650.0	
755455.0	54.484645066815034	128.0	128.0	340563.0798339844	1.1159571E7	56.88918017019989	788795.0	
755900.0	54.51673919162026	128.0	128.0	340564.0563964844	1.1159603E7	56.895671116789714	788885.0	
755685.0	54.501233041433466	128.0	128.0	340565.0329589844	1.1159635E7	56.90829240182548	789060.0	
756365.0	54.550275749001	128.0	128.0	340566.0095214844	1.1159667E7	56.926322809019425	789310.0	
755280.0	54.472023781779264	128.0	128.0	340566.9860839844	1.1159699E7	56.953368419810346	789685.0	
753845.0	54.368529244486005	128.0	128.0	340567.9626464844	1.1159731E7	56.960580582687925	789785.0	
754295.0	54.40098397743511	128.0	128.0	340568.9392089844	1.1159763E7	56.97500490844309	789985.0	
754815.0	54.43848722439852	128.0	128.0	340569.9157714844	1.1159795E7	56.96923517814103	789905.0	
755625.0	54.49690574370692	128.0	128.0	340570.8923339844	1.1159827E7	56.96851396185327	789895.0	
755350.0	54.47707229579357	128.0	128.0	340571.8688964844	1.1159859E7	56.95913815011241	789765.0	
754515.0	54.416850735765784	128.0	128.0	340572.8454589844	1.1159891E7	56.95300781166647	789680.0	
755705.0	54.50267547400898	128.0	128.0	340573.8220214844	1.1159923E7	56.94940173022768	789630.0	
755410.0	54.48139959352012	128.0	128.0	340574.7985839844	1.1159955E7	56.940025918486825	789500.0	
754450.0	54.41216282989536	128.0	128.0	340575.7751464844	1.1159987E7	56.946516865076646	789590.0	
755065.0	54.45651763159247	128.0	128.0	340576.7517089844	1.1160019E7	56.93786226962355	789470.0	
755950.0	54.52034527305905	128.0	128.0	340577.7282714844	1.1160051E7	56.942910783637856	789540.0	
754835.0	54.43992965697404	128.0	128.0	340578.7048339844	1.1160083E7	56.973201867723695	789960.0	
756425.0	54.55460304672755	128.0	128.0	340579.6813964844	1.1160115E7	56.96779274556551	789885.0	
755430.0	54.48284202609564	128.0	128.0	340580.6579589844	1.1160147E7	56.99664139707583	790285.0	
754830.0	54.43956904883016	128.0	128.0	340581.6345214844	1.1160179E7	56.99447774821255	790255.0	
755330.0	54.47562986321805	128.0	128.0	340582.6110839844	1.1160211E7	57.00890207396771	790455.0	
754850.0	54.441011481405674	128.0	128.0	340583.5876464844	1.1160243E7	57.031620387032085	790770.0	
755595.0	54.494742094843645	128.0	128.0	340584.5642089844	1.1160275E7	57.028014305593295	790720.0	
755970.0	54.521787705634566	128.0	128.0	340585.5407714844	1.1160307E7	57.04279923949233	790925.0	
755605.0	54.4954633111314	128.0	128.0	340586.5173339844	1.1160339E7	57.038471941765785	790865.0	
756200.0	54.538375680253	128.0	128.0	340587.4938964844	1.1160371E7	57.05037201051379	791030.0	
754535.0	54.4182931683413	128.0	128.0	340588.4704589844	1.1160403E7	57.07561458058532	791380.0	
756325.0	54.54739088384997	128.0	128.0	340589.4470214844	1.1160435E7	57.066238768844464	791250.0	
755765.0	54.50700277173553	128.0	128.0	340590.4235839844	1.1160467E7	57.08210552717514	791470.0	
755925.0	54.518542232339655	128.0	128.0	340591.4001464844	1.1160499E7	57.07056606657101	791310.0	
756015.0	54.525033178929476	128.0	128.0	340592.3767089844	1.1160531E7	57.07020545842713	791305.0	
755530.0	54.49005418897322	128.0	128.0	340593.3532714844	1.1160563E7	57.07200849914653	791330.0	
755470.0	54.48572689124667	128.0	128.0	340594.3298339844	1.1160595E7	57.05037201051379	791030.0	
755230.0	54.468417700340474	128.0	128.0	340595.3063964844	1.1160627E7	57.05505991638422	791095.0	
754870.0	54.44245391398119	128.0	128.0	340596.2829589844	1.1160659E7	57.06119025483016	791180.0	
755610.0	54.49582391927528	128.0	128.0	340597.2595214844	1.1160691E7	57.04099619877294	790900.0	
755765.0	54.50700277173553	128.0	128.0	340598.2360839844	1.1160723E7	57.05614174081585	791110.0	
755715.0	54.50339669029674	128.0	128.0	340599.2126464844	1.1160755E7	57.076335796873074	791390.0	
755005.0	54.45219033386592	128.0	128.0	340600.1892089844	1.1160787E7	57.09544802849866	791655.0	
756175.0	54.5365726395336	128.0	128.0	340601.1657714844	1.1160819E7	57.093644987779264	791630.0	
755060.0	54.45615702344859	128.0	128.0	340602.1423339844	1.1160851E7	57.11275721940485	791895.0	
754695.0	54.42983262894543	128.0	128.0	340603.1188964844	1.1160883E7	57.11131478682933	791875.0	
755815.0	54.51060885317432	128.0	128.0	340604.0954589844	1.1160915E7	57.127902761447764	792105.0	
755780.0	54.508084596167166	128.0	128.0	340605.0720214844	1.1160947E7	57.12934519402328	792125.0	
755055.0	54.45579641530471	128.0	128.0	340606.0485839844	1.1160979E7	57.131148234742675	792150.0	
756380.0	54.55135757343264	128.0	128.0	340607.0251464844	1.1161011E7	57.13367249174983	792185.0	
754765.0	54.43488114295973	128.0	128.0	340608.0017089844	1.1161043E7	57.165045400267296	792620.0	
755510.0	54.4886117563977	128.0	128.0	340608.9782714844	1.1161075E7	57.158915061821354	792535.0	
755305.0	54.47382682249866	128.0	128.0	340609.9548339844	1.1161107E7	57.16720904913057	792650.0	
755830.0	54.511690677605955	128.0	128.0	340610.9313964844	1.1161139E7	57.16468479212342	792615.0	
754795.0	54.437044791823006	128.0	128.0	340611.9079589844	1.1161171E7	57.168290873562206	792665.0	
756080.0	54.5297210847999	128.0	128.0	340612.8845214844	1.1161203E7	57.14196647905904	792300.0	
755140.0	54.46192675375065	128.0	128.0	340613.8610839844	1.1161235E7	57.151702898943775	792435.0	
755575.0	54.49329966226813	128.0	128.0	340614.8376464844	1.1161267E7	57.138360397620254	792250.0	
756210.0	54.539096896540755	128.0	128.0	340615.8142089844	1.1161299E7	57.14413012792232	792330.0	
754715.0	54.43127506152094	128.0	128.0	340616.7907714844	1.1161331E7	57.15386654780705	792465.0	
754200.0	54.39413242270141	128.0	128.0	340617.7673339844	1.1161363E7	57.1563908048142	792500.0	
754075.0	54.38511721910444	128.0	128.0	340618.7438964844	1.1161395E7	57.171896955000996	792715.0	
754380.0	54.40711431588105	128.0	128.0	340619.7204589844	1.1161427E7	57.18199398302961	792855.0	
754315.0	54.40242641001063	128.0	128.0	340620.6970214844	1.1161459E7	57.19173040291434	792990.0	
754795.0	54.437044791823006	128.0	128.0	340621.6735839844	1.1161491E7	57.18740310518779	792930.0	
755265.0	54.47094195734763	128.0	128.0	340622.6501464844	1.1161523E7	57.20146682279907	793125.0	
755405.0	54.481038985376244	128.0	128.0	340623.6267089844	1.1161555E7	57.213727499690954	793295.0	
755690.0	54.501593649577345	128.0	128.0	340624.6032714844	1.1161587E7	57.21877601370526	793365.0	
754640.0	54.42586593936276	128.0	128.0	340625.5798339844	1.1161619E7	57.21480932412259	793310.0	
754650.0	54.426587155650516	128.0	128.0	340626.5563964844	1.1161651E7	57.22598817658284	793465.0	
755280.0	54.472023781779264	128.0	128.0	340627.5329589844	1.1161683E7	57.234282163892054	793580.0	
755095.0	54.45868128045574	128.0	128.0	340628.5095214844	1.1161715E7	57.25267317922988	793835.0	
755770.0	54.50736337987941	128.0	128.0	340629.4860839844	1.1161747E7	57.250870138510486	793810.0	
755470.0	54.48572689124667	128.0	128.0	340630.4626464844	1.1161779E7	57.24834588150333	793775.0	
755485.0	54.48680871567831	128.0	128.0	340631.4392089844	1.1161811E7	57.24473980006454	793725.0	
756265.0	54.543063586123424	128.0	128.0	340632.4157714844	1.1161843E7	57.23572459646757	793600.0	
755730.0	54.504478514728376	128.0	128.0	340633.3923339844	1.1161875E7	57.230676082453265	793530.0	
755005.0	54.45219033386592	128.0	128.0	340634.3688964844	1.1161907E7	57.22779121730223	793490.0	
756095.0	54.53080290923154	128.0	128.0	340635.3454589844	1.1161939E7	57.21516993226647	793315.0	
756180.0	54.53693324767748	128.0	128.0	340636.3220214844	1.1161971E7	57.21192445897156	793270.0	
755505.0	54.48825114825382	128.0	128.0	340637.2985839844	1.1162003E7	57.20471229609398	793170.0	
756300.0	54.545587843130576	128.0	128.0	340638.2751464844	1.1162035E7	57.22779121730223	793490.0	
755165.0	54.46372979447005	128.0	128.0	340639.2517089844	1.1162067E7	57.244379191920665	793720.0	
755820.0	54.5109694613182	128.0	128.0	340640.2282714844	1.1162099E7	57.258442909531944	793915.0	
755220.0	54.467696484052716	128.0	128.0	340641.2048339844	1.1162131E7	57.264573247977886	794000.0	
755315.0	54.474548038786416	128.0	128.0	340642.1813964844	1.1162163E7	57.27430966786262	794135.0	
755705.0	54.50267547400898	128.0	128.0	340643.1579589844	1.1162195E7	57.27755514115753	794180.0	
755995.0	54.52359074635396	128.0	128.0	340644.1345214844	1.1162227E7	57.29306129134432	794395.0	
756000.0	54.52395135449784	128.0	128.0	340645.1110839844	1.1162259E7	57.29414311577596	794410.0	
755460.0	54.48500567495891	128.0	128.0	340646.0876464844	1.1162291E7	57.30856744153112	794610.0	
755625.0	54.49690574370692	128.0	128.0	340647.0642089844	1.1162323E7	57.30424014380457	794550.0	
756270.0	54.5434241942673	128.0	128.0	340648.0407714844	1.1162355E7	57.3276796731567	794875.0	
755565.0	54.49257844598037	128.0	128.0	340649.0173339844	1.1162387E7	57.33417061974652	794965.0	
755750.0	54.50592094730389	128.0	128.0	340649.9938964844	1.1162419E7	57.33597366046592	794990.0	
755025.0	54.45363276644144	128.0	128.0	340650.9704589844	1.1162451E7	57.329843322019975	794905.0	
756140.0	54.53404838252645	128.0	128.0	340651.9470214844	1.1162483E7	57.32190994285464	794795.0	
755070.0	54.45687823973635	128.0	128.0	340652.9235839844	1.1162515E7	57.32840088944446	794885.0	
754765.0	54.43488114295973	128.0	128.0	340653.9001464844	1.1162547E7	57.319746293991365	794765.0	
756100.0	54.53116351737542	128.0	128.0	340654.8767089844	1.1162579E7	57.295585548351475	794430.0	
755100.0	54.45904188859962	128.0	128.0	340655.8532714844	1.1162611E7	57.30351892751681	794540.0	
754835.0	54.43992965697404	128.0	128.0	340656.8298339844	1.1162643E7	57.288733993617775	794335.0	
755820.0	54.5109694613182	128.0	128.0	340657.8063964844	1.1162675E7	57.30135527865354	794510.0	
754725.0	54.4319962778087	128.0	128.0	340658.7829589844	1.1162707E7	57.33236757902713	794940.0	
756225.0	54.54017872097239	128.0	128.0	340659.7595214844	1.1162739E7	57.32912210573222	794895.0	
755140.0	54.46192675375065	128.0	128.0	340660.7360839844	1.1162771E7	57.3550858920915	795255.0	
755345.0	54.47671168764969	128.0	128.0	340661.7126464844	1.1162803E7	57.34102217448022	795060.0	
755890.0	54.5160179753325	128.0	128.0	340662.6892089844	1.1162835E7	57.35905258167417	795310.0	
754410.0	54.40927796474433	128.0	128.0	340663.6657714844	1.1162867E7	57.37275569114157	795500.0	
755470.0	54.48572689124667	128.0	128.0	340664.6423339844	1.1162899E7	57.37311629928545	795505.0	
754900.0	54.44461756284446	128.0	128.0	340665.6188964844	1.1162931E7	57.39763765306922	795845.0	
754100.0	54.38692025982383	128.0	128.0	340666.5954589844	1.1162963E7	57.41061954624886	796025.0	
753685.0	54.35698978388188	128.0	128.0	340667.5720214844	1.1162995E7	57.422519614996865	796190.0	
754150.0	54.39052634126262	128.0	128.0	340668.5485839844	1.1163027E7	57.433337859313234	796340.0	
753920.0	54.37393836664419	128.0	128.0	340669.5251464844	1.1163059E7	57.40412859965904	795935.0	
754145.0	54.39016573311874	128.0	128.0	340670.5017089844	1.1163091E7	57.412422586968255	796050.0	
755110.0	54.45976310488738	128.0	128.0	340671.4782714844	1.1163123E7	57.41711049283868	796115.0	
754050.0	54.38331417838504	128.0	128.0	340672.4548339844	1.1163155E7	57.415307452119286	796090.0	
754530.0	54.41793256019742	128.0	128.0	340673.4313964844	1.1163187E7	57.399080085644734	795865.0	
754630.0	54.425144723075	128.0	128.0	340674.4079589844	1.1163219E7	57.39439217977431	795800.0	
754795.0	54.437044791823006	128.0	128.0	340675.3845214844	1.1163251E7	57.3911467064794	795755.0	
754770.0	54.43524175110361	128.0	128.0	340676.3610839844	1.1163283E7	57.37167386670993	795485.0	
754880.0	54.44317513026895	128.0	128.0	340677.3376464844	1.1163315E7	57.36157683868132	795345.0	
755025.0	54.45363276644144	128.0	128.0	340678.3142089844	1.1163347E7	57.378164813299755	795575.0	
755515.0	54.48897236454158	128.0	128.0	340679.2907714844	1.1163379E7	57.39944069378861	795870.0	
755345.0	54.47671168764969	128.0	128.0	340680.2673339844	1.1163411E7	57.41458623583153	796080.0	
755430.0	54.48284202609564	128.0	128.0	340681.2438964844	1.1163443E7	57.42864995344281	796275.0	
755500.0	54.487890540109944	128.0	128.0	340682.2204589844	1.1163475E7	57.432977251169355	796335.0	
755195.0	54.46589344333332	128.0	128.0	340683.1970214844	1.1163507E7	57.44523792806124	796505.0	
755710.0	54.50303608215286	128.0	128.0	340684.1735839844	1.1163539E7	57.470119889988894	796850.0	
755025.0	54.45363276644144	128.0	128.0	340685.1501464844	1.1163571E7	57.47192293070829	796875.0	
755665.0	54.49979060885795	128.0	128.0	340686.1267089844	1.1163603E7	57.460744078248034	796720.0	
756290.0	54.54486662684282	128.0	128.0	340687.1032714844	1.1163635E7	57.46290772711131	796750.0	
755100.0	54.45904188859962	128.0	128.0	340688.0798339844	1.1163667E7	57.480216918017504	796990.0	
755165.0	54.46372979447005	128.0	128.0	340689.0563964844	1.1163699E7	57.483822999456294	797040.0	
755590.0	54.494381486699766	128.0	128.0	340690.0329589844	1.1163731E7	57.483822999456294	797040.0	
755430.0	54.48284202609564	128.0	128.0	340691.0095214844	1.1163763E7	57.48454421574405	797050.0	
755570.0	54.49293905412425	128.0	128.0	340691.9860839844	1.1163795E7	57.47733205286647	796950.0	
755705.0	54.50267547400898	128.0	128.0	340692.9626464844	1.1163827E7	57.47048049813277	796855.0	
756295.0	54.5452272349867	128.0	128.0	340693.9392089844	1.1163859E7	57.47372597142768	796900.0	
755615.0	54.49618452741916	128.0	128.0	340694.9157714844	1.1163891E7	57.4683168492695	796825.0	
756005.0	54.52431196264172	128.0	128.0	340695.8923339844	1.1163923E7	57.466153200406225	796795.0	
755780.0	54.508084596167166	128.0	128.0	340696.8688964844	1.1163955E7	57.460383470104155	796715.0	
755345.0	54.47671168764969	128.0	128.0	340697.8454589844	1.1163987E7	57.47120171442053	796865.0	
755665.0	54.49979060885795	128.0	128.0	340698.8220214844	1.1164019E7	57.483101783168536	797030.0	
756120.0	54.532605949950934	128.0	128.0	340699.7985839844	1.1164051E7	57.49932914964309	797255.0	
755625.0	54.49690574370692	128.0	128.0	340700.7751464844	1.1164083E7	57.503656447369636	797315.0	
755760.0	54.50664216359165	128.0	128.0	340701.7517089844	1.1164115E7	57.51519590797376	797475.0	
754855.0	54.44137208954955	128.0	128.0	340702.7282714844	1.1164147E7	57.52565354414625	797620.0	
756260.0	54.542702977979545	128.0	128.0	340703.7048339844	1.1164179E7	57.53322631516771	797725.0	
755110.0	54.45976310488738	128.0	128.0	340704.6813964844	1.1164211E7	57.54043847804529	797825.0	
755455.0	54.484645066815034	128.0	128.0	340705.6579589844	1.1164243E7	57.54981428978614	797955.0	
756215.0	54.539457504684634	128.0	128.0	340706.6345214844	1.1164275E7	57.56063253410251	798105.0	
755640.0	54.497987568138555	128.0	128.0	340707.6110839844	1.1164307E7	57.568926521411726	798220.0	
754510.0	54.416490127621906	128.0	128.0	340708.5876464844	1.1164339E7	57.58407206345464	798430.0	
755085.0	54.457960064167985	128.0	128.0	340709.5642089844	1.1164371E7	57.57866294129646	798355.0	
754985.0	54.450747901290406	128.0	128.0	340710.5407714844	1.1164403E7	57.586596320461794	798465.0	
755705.0	54.50267547400898	128.0	128.0	340711.5173339844	1.1164435E7	57.57036895398724	798240.0	
755790.0	54.50880581245492	128.0	128.0	340712.4938964844	1.1164467E7	57.571090170275	798250.0	
754990.0	54.451108509434285	128.0	128.0	340713.4704589844	1.1164499E7	57.57649929243318	798325.0	
755185.0	54.465172227045564	128.0	128.0	340714.4470214844	1.1164531E7	57.55630523637596	798045.0	
755495.0	54.487529931966066	128.0	128.0	340715.4235839844	1.1164563E7	57.54981428978614	797955.0	
753960.0	54.37682323179522	128.0	128.0	340716.4001464844	1.1164595E7	57.57758111686482	798340.0	
753855.0	54.36925046077376	128.0	128.0	340717.3767089844	1.1164627E7	57.57036895398724	798240.0	
753620.0	54.35230187801145	128.0	128.0	340718.3532714844	1.1164659E7	57.59416909148325	798570.0	
753465.0	54.341123025551205	128.0	128.0	340719.3298339844	1.1164691E7	57.585875104174036	798455.0	
754375.0	54.406753707737174	128.0	128.0	340720.3063964844	1.1164723E7	57.589841793756705	798510.0	
754800.0	54.437405399966885	128.0	128.0	340721.2829589844	1.1164755E7	57.60138125436083	798670.0	
754250.0	54.3977385041402	128.0	128.0	340722.2595214844	1.1164787E7	57.603184295080226	798695.0	
754195.0	54.39377181455753	128.0	128.0	340723.2360839844	1.1164819E7	57.62554200000072	799005.0	
755400.0	54.480678377232366	128.0	128.0	340724.2126464844	1.1164851E7	57.624099567425205	798985.0	
754050.0	54.38331417838504	128.0	128.0	340725.1892089844	1.1164883E7	57.63311477102218	799110.0	
754600.0	54.42298107421173	128.0	128.0	340726.1657714844	1.1164915E7	57.63672085246097	799160.0	
754840.0	54.440290265117916	128.0	128.0	340727.1423339844	1.1164947E7	57.63708146060485	799165.0	
754760.0	54.43452053481585	128.0	128.0	340728.1188964844	1.1164979E7	57.66124220624474	799500.0	
755410.0	54.48139959352012	128.0	128.0	340729.0954589844	1.1165011E7	57.6533088270794	799390.0	
754840.0	54.440290265117916	128.0	128.0	340730.0720214844	1.1165043E7	57.661963422532494	799510.0	
755355.0	54.47743290393745	128.0	128.0	340731.0485839844	1.1165075E7	57.661963422532494	799510.0	
755295.0	54.4731056062109	128.0	128.0	340732.0251464844	1.1165107E7	57.66232403067637	799515.0	
754905.0	54.44497817098834	128.0	128.0	340733.0017089844	1.1165139E7	57.63708146060485	799165.0	
755620.0	54.49654513556304	128.0	128.0	340733.9782714844	1.1165171E7	57.63888450132424	799190.0	
754840.0	54.440290265117916	128.0	128.0	340734.9548339844	1.1165203E7	57.627345040720115	799030.0	
755450.0	54.484284458671155	128.0	128.0	340735.9313964844	1.1165235E7	57.62229652670581	798960.0	
754765.0	54.43488114295973	128.0	128.0	340736.9079589844	1.1165267E7	57.62337835113745	798975.0	
755790.0	54.50880581245492	128.0	128.0	340737.8845214844	1.1165299E7	57.641408758331394	799225.0	
755165.0	54.46372979447005	128.0	128.0	340738.8610839844	1.1165331E7	57.65042396192837	799350.0	
756010.0	54.5246725707856	128.0	128.0	340739.8376464844	1.1165363E7	57.66448767953965	799545.0	
755400.0	54.480678377232366	128.0	128.0	340740.8142089844	1.1165395E7	57.661963422532494	799510.0	
755410.0	54.48139959352012	128.0	128.0	340741.7907714844	1.1165427E7	57.657996732949826	799455.0	
754825.0	54.43920844068628	128.0	128.0	340742.7673339844	1.1165459E7	57.66917558541007	799610.0	
756075.0	54.529360476656024	128.0	128.0	340743.7438964844	1.1165491E7	57.6807150460142	799770.0	
755655.0	54.49906939257019	128.0	128.0	340744.7204589844	1.1165523E7	57.692975722906084	799940.0	
755650.0	54.49870878442631	128.0	128.0	340745.6970214844	1.1165555E7	57.699466669495905	800030.0	
754810.0	54.43812661625464	128.0	128.0	340746.6735839844	1.1165587E7	57.71136673824391	800195.0	
755475.0	54.48608749939055	128.0	128.0	340747.6501464844	1.1165619E7	57.72506984771131	800385.0	
755695.0	54.50195425772122	128.0	128.0	340748.6267089844	1.1165651E7	57.73480626759604	800520.0	
755690.0	54.501593649577345	128.0	128.0	340749.6032714844	1.1165683E7	57.73192140244501	800480.0	
754965.0	54.44930546871489	128.0	128.0	340750.5798339844	1.1165715E7	57.727233496574584	800415.0	
755365.0	54.478154120225206	128.0	128.0	340751.5563964844	1.1165747E7	57.723266806991916	800360.0	
755970.0	54.521787705634566	128.0	128.0	340752.5329589844	1.1165779E7	57.71893950926537	800300.0	
755580.0	54.49366027041201	128.0	128.0	340753.5095214844	1.1165811E7	57.70559700794185	800115.0	
755350.0	54.47707229579357	128.0	128.0	340754.4860839844	1.1165843E7	57.699466669495905	800030.0	
754795.0	54.437044791823006	128.0	128.0	340755.4626464844	1.1165875E7	57.69658180434487	799990.0	
756035.0	54.52647561150499	128.0	128.0	340756.4392089844	1.1165907E7	57.692975722906084	799940.0	
755485.0	54.48680871567831	128.0	128.0	340757.4157714844	1.1165939E7	57.69405754733772	799955.0	
756090.0	54.53044230108766	128.0	128.0	340758.3923339844	1.1165971E7	57.70884248123676	800160.0	
754815.0	54.43848722439852	128.0	128.0	340759.3688964844	1.1166003E7	57.71893950926537	800300.0	
755920.0	54.518181624195776	128.0	128.0	340760.3454589844	1.1166035E7	57.73264261873277	800490.0	
755375.0	54.478875336512964	128.0	128.0	340761.3220214844	1.1166067E7	57.73841234903483	800570.0	
755690.0	54.501593649577345	128.0	128.0	340762.2985839844	1.1166099E7	57.74129721418586	800610.0	
754820.0	54.4388478325424	128.0	128.0	340763.2751464844	1.1166131E7	57.76365491910636	800920.0	
754550.0	54.41937499277294	128.0	128.0	340764.2517089844	1.1166163E7	57.76653978425739	800960.0	
755215.0	54.46733587590884	128.0	128.0	340765.2282714844	1.1166195E7	57.78024289372479	801150.0	
754015.0	54.38078992137789	128.0	128.0	340766.2048339844	1.1166227E7	57.80007634163813	801425.0	
753825.0	54.36708681191049	128.0	128.0	340767.1813964844	1.1166259E7	57.79755208463098	801390.0	
753745.0	54.361317081608426	128.0	128.0	340768.1579589844	1.1166291E7	57.82928560129233	801830.0	
754605.0	54.423341682355606	128.0	128.0	340769.1345214844	1.1166323E7	57.81702492440044	801660.0	
754420.0	54.409999181032084	128.0	128.0	340770.1110839844	1.1166355E7	57.81882796511984	801685.0	
754090.0	54.386199043536074	128.0	128.0	340771.0876464844	1.1166387E7	57.80837032894735	801540.0	
754640.0	54.42586593936276	128.0	128.0	340772.0642089844	1.1166419E7	57.792142962472795	801315.0	
754545.0	54.41901438462906	128.0	128.0	340773.0407714844	1.1166451E7	57.79791269277486	801395.0	
754875.0	54.44281452212507	128.0	128.0	340774.0173339844	1.1166483E7	57.79394600319219	801340.0	
755335.0	54.47599047136193	128.0	128.0	340774.9938964844	1.1166515E7	57.77627620414212	801095.0	
754945.0	54.447863036139374	128.0	128.0	340775.9704589844	1.1166547E7	57.78276715073194	801185.0	
755840.0	54.51241189389371	128.0	128.0	340776.9470214844	1.1166579E7	57.75932762137981	800860.0	
754570.0	54.42081742534845	128.0	128.0	340777.9235839844	1.1166611E7	57.778800461149274	801130.0	
755485.0	54.48680871567831	128.0	128.0	340778.9001464844	1.1166643E7	57.788897489177884	801270.0	
755070.0	54.45687823973635	128.0	128.0	340779.8767089844	1.1166675E7	57.81486127553717	801630.0	
754910.0	54.44533877913222	128.0	128.0	340780.8532714844	1.1166707E7	57.80764911265959	801530.0	
755400.0	54.480678377232366	128.0	128.0	340781.8298339844	1.1166739E7	57.81702492440044	801660.0	
755265.0	54.47094195734763	128.0	128.0	340782.8063964844	1.1166771E7	57.83072803386784	801850.0	
755775.0	54.50772398802329	128.0	128.0	340783.7829589844	1.1166803E7	57.84298871075973	802020.0	
755675.0	54.50051182514571	128.0	128.0	340784.7595214844	1.1166835E7	57.836858372313785	801935.0	
755560.0	54.49221783783649	128.0	128.0	340785.7360839844	1.1166867E7	57.84407053519136	802035.0	
755070.0	54.45687823973635	128.0	128.0	340786.7126464844	1.1166899E7	57.85633121208325	802205.0	
754710.0	54.43091445337706	128.0	128.0	340787.6892089844	1.1166931E7	57.86931310526289	802385.0	
755265.0	54.47094195734763	128.0	128.0	340788.6657714844	1.1166963E7	57.88193439029865	802560.0	
756290.0	54.54486662684282	128.0	128.0	340789.6423339844	1.1166995E7	57.88590107988132	802615.0	
754965.0	54.44930546871489	128.0	128.0	340790.6188964844	1.1167027E7	57.87003432155065	802395.0	
756145.0	54.53440899067033	128.0	128.0	340791.5954589844	1.1167059E7	57.85849486094652	802235.0	
755825.0	54.511330069462076	128.0	128.0	340792.5720214844	1.1167091E7	57.850922089925064	802130.0	
755820.0	54.5109694613182	128.0	128.0	340793.5485839844	1.1167123E7	57.84623418405464	802065.0	
754960.0	54.44894486057101	128.0	128.0	340794.5251464844	1.1167155E7	57.83469472345051	801905.0	
755490.0	54.48716932382219	128.0	128.0	340795.5017089844	1.1167187E7	57.8383008048893	801955.0	
755185.0	54.465172227045564	128.0	128.0	340796.4782714844	1.1167219E7	57.83866141303318	801960.0	
755930.0	54.518902840483534	128.0	128.0	340797.4548339844	1.1167251E7	57.84803722477403	802090.0	
754825.0	54.43920844068628	128.0	128.0	340798.4313964844	1.1167283E7	57.86354337496083	802305.0	
755655.0	54.49906939257019	128.0	128.0	340799.4079589844	1.1167315E7	57.874361619277195	802455.0	
755720.0	54.50375729844062	128.0	128.0	340800.3845214844	1.1167347E7	57.88554047173744	802610.0	
754760.0	54.43452053481585	128.0	128.0	340801.3610839844	1.1167379E7	57.88950716132011	802665.0	
754685.0	54.42911141265767	128.0	128.0	340802.3376464844	1.1167411E7	57.90032540563648	802815.0	
755705.0	54.50267547400898	128.0	128.0	340803.3142089844	1.1167443E7	57.908619392945695	802930.0	
755055.0	54.45579641530471	128.0	128.0	340804.2907714844	1.1167475E7	57.92124067798146	803105.0	
755535.0	54.4904147971171	128.0	128.0	340805.2673339844	1.1167507E7	57.92845284085904	803205.0	
755075.0	54.45723884788023	128.0	128.0	340806.2438964844	1.1167539E7	57.93674682816825	803320.0	
755770.0	54.50736337987941	128.0	128.0	340807.2204589844	1.1167571E7	57.939631693319285	803360.0	
754830.0	54.43956904883016	128.0	128.0	340808.1970214844	1.1167603E7	57.95441662721832	803565.0	
754525.0	54.41757195205354	128.0	128.0	340809.1735839844	1.1167635E7	57.9547772353622	803570.0	
755450.0	54.484284458671155	128.0	128.0	340810.1501464844	1.1167667E7	57.95730149236935	803605.0	
755140.0	54.46192675375065	128.0	128.0	340811.1267089844	1.1167699E7	57.95549845164996	803580.0	
754725.0	54.4319962778087	128.0	128.0	340812.1032714844	1.1167731E7	57.93674682816825	803320.0	
755555.0	54.49185722969261	128.0	128.0	340813.0798339844	1.1167763E7	57.94359838290195	803415.0	
755085.0	54.457960064167985	128.0	128.0	340814.0563964844	1.1167795E7	57.93061648972231	803235.0	
755730.0	54.504478514728376	128.0	128.0	340815.0329589844	1.1167827E7	57.918716420974306	803070.0	
753560.0	54.347974580284905	128.0	128.0	340816.0095214844	1.1167859E7	57.93205892229783	803255.0	
753645.0	54.35410491873085	128.0	128.0	340816.9860839844	1.1167891E7	57.93458317930498	803290.0	
753710.0	54.358792824601274	128.0	128.0	340817.9626464844	1.1167923E7	57.94828628877238	803480.0	
753225.0	54.323813834645016	128.0	128.0	340818.9392089844	1.1167955E7	57.95838331680099	803620.0	
753845.0	54.368529244486005	128.0	128.0	340819.9157714844	1.1167987E7	57.965956087822455	803725.0	
754630.0	54.425144723075	128.0	128.0	340820.8923339844	1.1168019E7	57.9634318308153	803690.0	
753785.0	54.36420194675946	128.0	128.0	340821.8688964844	1.1168051E7	57.983625886872524	803970.0	
754650.0	54.426587155650516	128.0	128.0	340822.8454589844	1.1168083E7	57.98470771130416	803985.0	
754460.0	54.412884046183116	128.0	128.0	340823.8220214844	1.1168115E7	58.004180551073624	804255.0	
754350.0	54.40495066701778	128.0	128.0	340824.7985839844	1.1168147E7	57.98867440088683	804040.0	
754060.0	54.3840353946728	128.0	128.0	340825.7751464844	1.1168179E7	57.98218345429701	803950.0	
754675.0	54.42839019636991	128.0	128.0	340826.7517089844	1.1168211E7	57.982904670584766	803960.0	
755840.0	54.51241189389371	128.0	128.0	340827.7282714844	1.1168243E7	58.00850784880017	804315.0	
754685.0	54.42911141265767	128.0	128.0	340828.7048339844	1.1168275E7	58.02257156641145	804510.0	
756075.0	54.529360476656024	128.0	128.0	340829.6813964844	1.1168307E7	58.017523052397145	804440.0	
755685.0	54.501233041433466	128.0	128.0	340830.6579589844	1.1168339E7	58.00958967323181	804330.0	
754960.0	54.44894486057101	128.0	128.0	340831.6345214844	1.1168371E7	58.01247453838284	804370.0	
754090.0	54.386199043536074	128.0	128.0	340832.6110839844	1.1168403E7	58.00670480808078	804290.0	
755230.0	54.468417700340474	128.0	128.0	340833.5876464844	1.1168435E7	57.98831379274295	804035.0	
755350.0	54.47707229579357	128.0	128.0	340834.5642089844	1.1168467E7	57.9857895357358	804000.0	
754490.0	54.41504769504639	128.0	128.0	340835.5407714844	1.1168499E7	57.98110162986537	803935.0	
754710.0	54.43091445337706	128.0	128.0	340836.5173339844	1.1168531E7	57.98038041357761	803925.0	
755270.0	54.471302565491506	128.0	128.0	340837.4938964844	1.1168563E7	57.98218345429701	803950.0	
754835.0	54.43992965697404	128.0	128.0	340838.4704589844	1.1168595E7	57.9976896044838	804165.0	
755915.0	54.5178210160519	128.0	128.0	340839.4470214844	1.1168627E7	58.010310889519566	804340.0	
755240.0	54.46913891662823	128.0	128.0	340840.4235839844	1.1168659E7	58.01968670126042	804470.0	
754985.0	54.450747901290406	128.0	128.0	340841.4001464844	1.1168691E7	58.02653825599412	804565.0	
755775.0	54.50772398802329	128.0	128.0	340842.3767089844	1.1168723E7	58.02906251300127	804600.0	
755165.0	54.46372979447005	128.0	128.0	340843.3532714844	1.1168755E7	58.05466569121668	804955.0	
755020.0	54.45327215829756	128.0	128.0	340844.3298339844	1.1168787E7	58.045289879475824	804825.0	
754390.0	54.40783553216881	128.0	128.0	340845.3063964844	1.1168819E7	58.062238462238135	805060.0	
754430.0	54.41072039731984	128.0	128.0	340846.2829589844	1.1168851E7	58.06728697625244	805130.0	
753890.0	54.371774717780916	128.0	128.0	340847.2595214844	1.1168883E7	58.08207191015148	805335.0	
755010.0	54.4525509420098	128.0	128.0	340848.2360839844	1.1168915E7	58.083153734583114	805350.0	
755070.0	54.45687823973635	128.0	128.0	340849.2126464844	1.1168947E7	58.0867598160219	805400.0	
755190.0	54.46553283518944	128.0	128.0	340850.1892089844	1.1168979E7	58.096135627762756	805530.0	
754750.0	54.433799318528095	128.0	128.0	340851.1657714844	1.1169011E7	58.0885628567413	805425.0	
755570.0	54.49293905412425	128.0	128.0	340852.1423339844	1.1169043E7	58.07846582871269	805285.0	
754965.0	54.44930546871489	128.0	128.0	340853.1188964844	1.1169075E7	58.072696098410624	805205.0	
755295.0	54.4731056062109	128.0	128.0	340854.0954589844	1.1169107E7	58.0662051518208	805115.0	
755170.0	54.46409040261393	128.0	128.0	340855.0720214844	1.1169139E7	58.0525020423534	804925.0	
754620.0	54.42442350678724	128.0	128.0	340856.0485839844	1.1169171E7	58.05069900163401	804900.0	
754625.0	54.42478411493112	128.0	128.0	340857.0251464844	1.1169203E7	58.048895960914614	804875.0	
754935.0	54.447141819851616	128.0	128.0	340858.0017089844	1.1169235E7	58.07161427397899	805190.0	
754905.0	54.44497817098834	128.0	128.0	340858.9782714844	1.1169267E7	58.07846582871269	805285.0	
754815.0	54.43848722439852	128.0	128.0	340859.9548339844	1.1169299E7	58.090005289316814	805445.0	
755405.0	54.481038985376244	128.0	128.0	340860.9313964844	1.1169331E7	58.09433258704336	805505.0	
754630.0	54.425144723075	128.0	128.0	340861.9079589844	1.1169363E7	58.1022659662087	805615.0	
754390.0	54.40783553216881	128.0	128.0	340862.8845214844	1.1169395E7	58.11993576525877	805860.0	
754685.0	54.42911141265767	128.0	128.0	340863.8610839844	1.1169427E7	58.12209941412204	805890.0	
755020.0	54.45327215829756	128.0	128.0	340864.8376464844	1.1169459E7	58.123541846697556	805910.0	
753075.0	54.31299559032865	128.0	128.0	340865.8142089844	1.1169491E7	58.15058745748848	806285.0	
753725.0	54.35987464903291	128.0	128.0	340866.7907714844	1.1169523E7	58.15239049820787	806310.0	
753630.0	54.35302309429921	128.0	128.0	340867.7673339844	1.1169555E7	58.16645421581915	806505.0	
753410.0	54.33715633596854	128.0	128.0	340868.7438964844	1.1169587E7	58.1689784728263	806540.0	
754065.0	54.38439600281668	128.0	128.0	340869.7204589844	1.1169619E7	58.16753604025079	806520.0	
755255.0	54.47022074105987	128.0	128.0	340870.6970214844	1.1169651E7	58.164651175099756	806480.0	
754795.0	54.437044791823006	128.0	128.0	340871.6735839844	1.1169683E7	58.14626015976193	806225.0	
754805.0	54.43776600811076	128.0	128.0	340872.6501464844	1.1169715E7	58.1502268493446	806280.0	
754585.0	54.42189924978009	128.0	128.0	340873.6267089844	1.1169747E7	58.14662076790581	806230.0	
755105.0	54.4594024967435	128.0	128.0	340874.6032714844	1.1169779E7	58.12859036071186	805980.0	
754865.0	54.44209330583731	128.0	128.0	340875.5798339844	1.1169811E7	58.11993576525877	805860.0	
754935.0	54.447141819851616	128.0	128.0	340876.5563964844	1.1169843E7	58.123541846697556	805910.0	
754505.0	54.41612951947803	128.0	128.0	340877.5329589844	1.1169875E7	58.14626015976193	806225.0	
755160.0	54.46336918632617	128.0	128.0	340878.5095214844	1.1169907E7	58.14986624120072	806275.0	
754080.0	54.385477827248316	128.0	128.0	340879.4860839844	1.1169939E7	58.175469419416125	806630.0	
754490.0	54.41504769504639	128.0	128.0	340880.4626464844	1.1169971E7	58.1707815135457	806565.0	
754455.0	54.41252343803924	128.0	128.0	340881.4392089844	1.1170003E7	58.1844846230131	806755.0	
754605.0	54.423341682355606	128.0	128.0	340882.4157714844	1.1170035E7	58.192057394034556	806860.0	
755760.0	54.50664216359165	128.0	128.0	340883.3923339844	1.1170067E7	58.18700888002025	806790.0	
754065.0	54.38439600281668	128.0	128.0	340884.3688964844	1.1170099E7	58.2118908419479	807135.0	
754480.0	54.41432647875863	128.0	128.0	340885.3454589844	1.1170131E7	58.22523334327142	807320.0	
754070.0	54.38475661096056	128.0	128.0	340886.3220214844	1.1170163E7	58.219463612969356	807240.0	
754255.0	54.39809911228408	128.0	128.0	340887.2985839844	1.1170195E7	58.23136368171736	807405.0	
755130.0	54.461205537462895	128.0	128.0	340888.2751464844	1.1170227E7	58.2392970608827	807515.0	
754945.0	54.447863036139374	128.0	128.0	340889.2517089844	1.1170259E7	58.240739493458214	807535.0	
755420.0	54.48212080980788	128.0	128.0	340890.2282714844	1.1170291E7	58.24975469705519	807660.0	
754310.0	54.40206580186675	128.0	128.0	340891.2048339844	1.1170323E7	58.230281857285725	807390.0	
755555.0	54.49185722969261	128.0	128.0	340892.1813964844	1.1170355E7	58.22198786997651	807275.0	
755695.0	54.50195425772122	128.0	128.0	340893.1579589844	1.1170387E7	58.223069694408146	807290.0	
754915.0	54.4456993872761	128.0	128.0	340894.1345214844	1.1170419E7	58.20395746278256	807025.0	
755425.0	54.48248141795176	128.0	128.0	340895.1110839844	1.1170451E7	58.20071198948765	806980.0	
755570.0	54.49293905412425	128.0	128.0	340896.0876464844	1.1170483E7	58.202875638350925	807010.0	
754495.0	54.41540830319027	128.0	128.0	340897.0642089844	1.1170515E7	58.202875638350925	807010.0	
754815.0	54.43848722439852	128.0	128.0	340898.0407714844	1.1170547E7	58.229921249141846	807385.0	
755000.0	54.45182972572204	128.0	128.0	340899.0173339844	1.1170579E7	58.22956064099797	807380.0	
754675.0	54.42839019636991	128.0	128.0	340899.9938964844	1.1170611E7	58.23496976315615	807455.0	
755660.0	54.49943000071407	128.0	128.0	340900.9704589844	1.1170643E7	58.24542739932864	807600.0	
754500.0	54.41576891133415	128.0	128.0	340901.9470214844	1.1170675E7	58.25913050879604	807790.0	
754950.0	54.44822364428325	128.0	128.0	340902.9235839844	1.1170707E7	58.271030577544046	807955.0	
754640.0	54.42586593936276	128.0	128.0	340903.9001464844	1.1170739E7	58.27752152413387	808045.0	
754630.0	54.425144723075	128.0	128.0	340904.8767089844	1.1170771E7	58.28329125443593	808125.0	
755095.0	54.45868128045574	128.0	128.0	340905.8532714844	1.1170803E7	58.28220943000429	808110.0	
755100.0	54.45904188859962	128.0	128.0	340906.8298339844	1.1170835E7	58.298436796478846	808335.0	
754900.0	54.44461756284446	128.0	128.0	340907.8063964844	1.1170867E7	58.30384591863703	808410.0	
754435.0	54.41108100546372	128.0	128.0	340908.7829589844	1.1170899E7	58.32223693397486	808665.0	
755540.0	54.490775405260976	128.0	128.0	340909.7595214844	1.1170931E7	58.31177929780237	808520.0	
754960.0	54.44894486057101	128.0	128.0	340910.7360839844	1.1170963E7	58.299158012766604	808345.0	
754880.0	54.44317513026895	128.0	128.0	340911.7126464844	1.1170995E7	58.30456713492479	808420.0	
754920.0	54.44605999541998	128.0	128.0	340912.6892089844	1.1171027E7	58.29951862091048	808350.0	
755205.0	54.46661465962108	128.0	128.0	340913.6657714844	1.1171059E7	58.28365186257981	808130.0	
754580.0	54.42153864163621	128.0	128.0	340914.6423339844	1.1171091E7	58.29014280916963	808220.0	
753760.0	54.36239890604006	128.0	128.0	340915.6188964844	1.1171123E7	58.29302767432066	808260.0	
752755.0	54.289916669120394	128.0	128.0	340916.5954589844	1.1171155E7	58.29987922905436	808355.0	
753865.0	54.36997167706152	128.0	128.0	340917.5720214844	1.1171187E7	58.30745200007582	808460.0	
753540.0	54.34653214770939	128.0	128.0	340918.5485839844	1.1171219E7	58.32043389325546	808640.0	
754020.0	54.38115052952177	128.0	128.0	340919.5251464844	1.1171251E7	58.32043389325546	808640.0	
753415.0	54.337516944112416	128.0	128.0	340920.5017089844	1.1171283E7	58.339546124881046	808905.0	
754525.0	54.41757195205354	128.0	128.0	340921.4782714844	1.1171315E7	58.34134916560044	808930.0	
754715.0	54.43127506152094	128.0	128.0	340922.4548339844	1.1171347E7	58.35469166692396	809115.0	
754785.0	54.43632357553525	128.0	128.0	340923.4313964844	1.1171379E7	58.36190382980154	809215.0	
754405.0	54.40891735660045	128.0	128.0	340924.4079589844	1.1171411E7	58.37957362885161	809460.0	
754690.0	54.42947202080155	128.0	128.0	340925.3845214844	1.1171443E7	58.36334626237706	809235.0	
754155.0	54.3908869494065	128.0	128.0	340926.3610839844	1.1171475E7	58.37524633112506	809400.0	
754745.0	54.433438710384216	128.0	128.0	340927.3376464844	1.1171507E7	58.38606457544143	809550.0	
754675.0	54.42839019636991	128.0	128.0	340928.3142089844	1.1171539E7	58.405537415210894	809820.0	
754820.0	54.4388478325424	128.0	128.0	340929.2907714844	1.1171571E7	58.38570396729755	809545.0	
754555.0	54.419735600916816	128.0	128.0	340930.2673339844	1.1171603E7	58.38534335915367	809540.0	
755225.0	54.468057092196595	128.0	128.0	340931.2438964844	1.1171635E7	58.36839477639136	809305.0	
754495.0	54.41540830319027	128.0	128.0	340932.2204589844	1.1171667E7	58.363706870520936	809240.0	
754910.0	54.44533877913222	128.0	128.0	340933.1970214844	1.1171699E7	58.360100789082146	809190.0	
754160.0	54.39124755755038	128.0	128.0	340934.1735839844	1.1171731E7	58.35144619362905	809070.0	
753815.0	54.36636559562273	128.0	128.0	340935.1501464844	1.1171763E7	58.34747950404638	809015.0	
754980.0	54.45038729314653	128.0	128.0	340936.1267089844	1.1171795E7	58.33413700272286	808830.0	
754700.0	54.430193237089306	128.0	128.0	340937.1032714844	1.1171827E7	58.33089152942795	808785.0	
754660.0	54.427308371938274	128.0	128.0	340938.0798339844	1.1171859E7	58.343873422607594	808965.0	
754865.0	54.44209330583731	128.0	128.0	340939.0563964844	1.1171891E7	58.36118261351378	809205.0	
755305.0	54.47382682249866	128.0	128.0	340940.0329589844	1.1171923E7	58.36659173567197	809280.0	
755020.0	54.45327215829756	128.0	128.0	340941.0095214844	1.1171955E7	58.37200085783015	809355.0	
754885.0	54.44353573841283	128.0	128.0	340941.9860839844	1.1171987E7	58.384982751009794	809535.0	
754510.0	54.416490127621906	128.0	128.0	340942.9626464844	1.1172019E7	58.39760403604556	809710.0	
754400.0	54.40855674845657	128.0	128.0	340943.9392089844	1.1172051E7	58.40048890119659	809750.0	
754830.0	54.43956904883016	128.0	128.0	340944.9157714844	1.1172083E7	58.408422280361926	809860.0	
754460.0	54.412884046183116	128.0	128.0	340945.8923339844	1.1172115E7	58.404816198923136	809810.0	
754845.0	54.440650873261795	128.0	128.0	340946.8688964844	1.1172147E7	58.408422280361926	809860.0	
755475.0	54.48608749939055	128.0	128.0	340947.8454589844	1.1172179E7	58.432943634145694	810200.0	
754910.0	54.44533877913222	128.0	128.0	340948.8220214844	1.1172211E7	58.45746498792946	810540.0	
753810.0	54.36600498747885	128.0	128.0	340949.7985839844	1.1172243E7	58.453498298346794	810485.0	
754375.0	54.406753707737174	128.0	128.0	340950.7751464844	1.1172275E7	58.43691032372836	810255.0	
754775.0	54.43560235924749	128.0	128.0	340951.7517089844	1.1172307E7	58.435828499296726	810240.0	
754955.0	54.44858425242713	128.0	128.0	340952.7282714844	1.1172339E7	58.41960113282217	810015.0	
754800.0	54.437405399966885	128.0	128.0	340953.7048339844	1.1172371E7	58.42501025498036	810090.0	
755070.0	54.45687823973635	128.0	128.0	340954.6813964844	1.1172403E7	58.387867616160825	809575.0	
754395.0	54.40819614031269	128.0	128.0	340955.6579589844	1.1172435E7	58.39327673831901	809650.0	
754830.0	54.43956904883016	128.0	128.0	340956.6345214844	1.1172467E7	58.40986471293744	809880.0	
753885.0	54.37141410963704	128.0	128.0	340957.6110839844	1.1172499E7	58.41815870024666	809995.0	
755000.0	54.45182972572204	128.0	128.0	340958.5876464844	1.1172531E7	58.40806167221805	809855.0	
754745.0	54.433438710384216	128.0	128.0	340959.5642089844	1.1172563E7	58.43546789115285	810235.0	
754870.0	54.44245391398119	128.0	128.0	340960.5407714844	1.1172595E7	58.44881039247637	810420.0	
754535.0	54.4182931683413	128.0	128.0	340961.5173339844	1.1172627E7	58.45241647391516	810470.0	
754700.0	54.430193237089306	128.0	128.0	340962.4938964844	1.1172659E7	58.46395593451929	810630.0	
754615.0	54.42406289864336	128.0	128.0	340963.4704589844	1.1172691E7	58.469004448533596	810700.0	
755325.0	54.475269255074174	128.0	128.0	340964.4470214844	1.1172723E7	58.479462084706086	810845.0	
753560.0	54.347974580284905	128.0	128.0	340965.4235839844	1.1172755E7	58.503622830345975	811180.0	
752715.0	54.28703180396936	128.0	128.0	340966.4001464844	1.1172787E7	58.51552289909398	811345.0	
753435.0	54.33895937668793	128.0	128.0	340967.3767089844	1.1172819E7	58.513719858374586	811320.0	
753400.0	54.33643511968078	128.0	128.0	340968.3532714844	1.1172851E7	58.5288654004175	811530.0	
752965.0	54.30506221116331	128.0	128.0	340969.3298339844	1.1172883E7	58.5220138456838	811435.0	
754605.0	54.423341682355606	128.0	128.0	340970.3063964844	1.1172915E7	58.51227742579907	811300.0	
754405.0	54.40891735660045	128.0	128.0	340971.2829589844	1.1172947E7	58.510113776935796	811270.0	
754260.0	54.39845972042796	128.0	128.0	340972.2595214844	1.1172979E7	58.503983438489854	811185.0	
754220.0	54.39557485527693	128.0	128.0	340973.2360839844	1.1173011E7	58.500016748907186	811130.0	
753740.0	54.36095647346455	128.0	128.0	340974.2126464844	1.1173043E7	58.48234694985712	810885.0	
754015.0	54.38078992137789	128.0	128.0	340975.1892089844	1.1173075E7	58.47765904398669	810820.0	
754860.0	54.44173269769343	128.0	128.0	340976.1657714844	1.1173107E7	58.46864384038972	810695.0	
754605.0	54.423341682355606	128.0	128.0	340977.1423339844	1.1173139E7	58.47693782769893	810810.0	
755405.0	54.481038985376244	128.0	128.0	340978.1188964844	1.1173171E7	58.49244397788573	811025.0	
754900.0	54.44461756284446	128.0	128.0	340979.0954589844	1.1173203E7	58.50218039777046	811160.0	
754430.0	54.41072039731984	128.0	128.0	340980.0720214844	1.1173235E7	58.50758951992864	811235.0	
754570.0	54.42081742534845	128.0	128.0	340981.0485839844	1.1173267E7	58.51588350723786	811350.0	
754385.0	54.40747492402493	128.0	128.0	340982.0251464844	1.1173299E7	58.51588350723786	811350.0	
755510.0	54.4886117563977	128.0	128.0	340983.0017089844	1.1173331E7	58.52670175155423	811500.0	
754400.0	54.40855674845657	128.0	128.0	340983.9782714844	1.1173363E7	58.54220790174102	811715.0	
754315.0	54.40242641001063	128.0	128.0	340984.9548339844	1.1173395E7	58.55014128090636	811825.0	
755530.0	54.49005418897322	128.0	128.0	340985.9313964844	1.1173427E7	58.551223105337996	811840.0	
754515.0	54.416850735765784	128.0	128.0	340986.9079589844	1.1173459E7	58.5562716193523	811910.0	
755200.0	54.4662540514772	128.0	128.0	340987.8845214844	1.1173491E7	58.568892904388065	812085.0	
754260.0	54.39845972042796	128.0	128.0	340988.8610839844	1.1173523E7	58.578989932416675	812225.0	
754900.0	54.44461756284446	128.0	128.0	340989.8376464844	1.1173555E7	58.575383850977886	812175.0	
753735.0	54.36059586532067	128.0	128.0	340990.8142089844	1.1173587E7	58.57790810798504	812210.0	
754640.0	54.42586593936276	128.0	128.0	340991.7907714844	1.1173619E7	58.56456560666152	812025.0	
754305.0	54.40170519372287	128.0	128.0	340992.7673339844	1.1173651E7	58.55266553791351	811860.0	
754740.0	54.43307810224034	128.0	128.0	340993.7438964844	1.1173683E7	58.55915648450333	811950.0	
754385.0	54.40747492402493	128.0	128.0	340994.7204589844	1.1173715E7	58.52958661670526	811540.0	
754535.0	54.4182931683413	128.0	128.0	340995.6970214844	1.1173747E7	58.541126077309386	811700.0	
754930.0	54.44678121170774	128.0	128.0	340996.6735839844	1.1173779E7	58.523816886403196	811460.0	
754410.0	54.40927796474433	128.0	128.0	340997.6501464844	1.1173811E7	58.5425685098849	811720.0	
754060.0	54.3840353946728	128.0	128.0	340998.6267089844	1.1173843E7	58.56672925552479	812055.0	
754315.0	54.40242641001063	128.0	128.0	340999.6032714844	1.1173875E7	58.54978067276248	811820.0	
755035.0	54.454353982729195	128.0	128.0	341000.5798339844	1.1173907E7	58.58151418942383	812260.0	
754705.0	54.430553845233185	128.0	128.0	341001.5563964844	1.1173939E7	58.57322020211461	812145.0	
754805.0	54.43776600811076	128.0	128.0	341002.5329589844	1.1173971E7	58.582596013855465	812275.0	
753920.0	54.37393836664419	128.0	128.0	341003.5095214844	1.1174003E7	58.60062642104941	812525.0	
754570.0	54.42081742534845	128.0	128.0	341004.4860839844	1.1174035E7	58.59882338033002	812500.0	
753765.0	54.36275951418394	128.0	128.0	341005.4626464844	1.1174067E7	58.61865682824336	812775.0	
754275.0	54.399541544859595	128.0	128.0	341006.4392089844	1.1174099E7	58.606756759495354	812610.0	
755055.0	54.45579641530471	128.0	128.0	341007.4157714844	1.1174131E7	58.627311423696455	812895.0	
753915.0	54.37357775850031	128.0	128.0	341008.3923339844	1.1174163E7	58.64317818202713	813115.0	
755205.0	54.46661465962108	128.0	128.0	341009.3688964844	1.1174195E7	58.62622959926482	812880.0	
754710.0	54.43091445337706	128.0	128.0	341010.3454589844	1.1174227E7	58.619738652675	812790.0	
754725.0	54.4319962778087	128.0	128.0	341011.3220214844	1.1174259E7	58.61757500381172	812760.0	
754550.0	54.41937499277294	128.0	128.0	341012.2985839844	1.1174291E7	58.623705342257665	812845.0	
754000.0	54.37970809694625	128.0	128.0	341013.2751464844	1.1174323E7	58.59774155589838	812485.0	
753965.0	54.3771838399391	128.0	128.0	341014.2517089844	1.1174355E7	58.589447568589165	812370.0	
753795.0	54.364923163047216	128.0	128.0	341015.2282714844	1.1174387E7	58.60711736763923	812615.0	
752585.0	54.27765599222851	128.0	128.0	341016.2048339844	1.1174419E7	58.60459311063208	812580.0	
753680.0	54.356629175738	128.0	128.0	341017.1813964844	1.1174451E7	58.610362840934144	812660.0	
752690.0	54.28522876324997	128.0	128.0	341018.1579589844	1.1174483E7	58.62082047710663	812805.0	
753030.0	54.30975011703374	128.0	128.0	341019.1345214844	1.1174515E7	58.62586899112094	812875.0	
753760.0	54.36239890604006	128.0	128.0	341020.1110839844	1.1174547E7	58.62983568070361	812930.0	
754030.0	54.381871745809526	128.0	128.0	341021.0876464844	1.1174579E7	58.63452358657403	812995.0	
753480.0	54.34220484998284	128.0	128.0	341022.0642089844	1.1174611E7	58.650750953048586	813220.0	
754080.0	54.385477827248316	128.0	128.0	341023.0407714844	1.1174643E7	58.651472169336344	813230.0	
753935.0	54.375020191075826	128.0	128.0	341024.0173339844	1.1174675E7	58.67058440096193	813495.0	
754825.0	54.43920844068628	128.0	128.0	341024.9938964844	1.1174707E7	58.66733892766702	813450.0	
755020.0	54.45327215829756	128.0	128.0	341025.9704589844	1.1174739E7	58.66986318467417	813485.0	
754145.0	54.39016573311874	128.0	128.0	341026.9470214844	1.1174771E7	58.68356629414157	813675.0	
754575.0	54.42117803349233	128.0	128.0	341027.9235839844	1.1174803E7	58.695466362889576	813840.0	
754970.0	54.44966607685877	128.0	128.0	341028.9001464844	1.1174835E7	58.70339974205491	813950.0	
753640.0	54.35374431058697	128.0	128.0	341029.8767089844	1.1174867E7	58.699072444328365	813890.0	
754445.0	54.41180222175148	128.0	128.0	341030.8532714844	1.1174899E7	58.68392690228545	813680.0	
755245.0	54.46949952477211	128.0	128.0	341031.8298339844	1.1174931E7	58.685369334860965	813700.0	
754550.0	54.41937499277294	128.0	128.0	341032.8063964844	1.1174963E7	58.682484469709934	813660.0	
754335.0	54.40386884258614	128.0	128.0	341033.7829589844	1.1174995E7	58.66661771137926	813440.0	
755035.0	54.454353982729195	128.0	128.0	341034.7595214844	1.1175027E7	58.65183277748022	813235.0	
754885.0	54.44353573841283	128.0	128.0	341035.7360839844	1.1175059E7	58.650750953048586	813220.0	
754820.0	54.4388478325424	128.0	128.0	341036.7126464844	1.1175091E7	58.65724189963841	813310.0	
754380.0	54.40711431588105	128.0	128.0	341037.6892089844	1.1175123E7	58.671305617249686	813505.0	
753485.0	54.34256545812672	128.0	128.0	341038.6657714844	1.1175155E7	58.69041784887527	813770.0	
754765.0	54.43488114295973	128.0	128.0	341039.6423339844	1.1175187E7	58.68104203713442	813640.0	
754420.0	54.409999181032084	128.0	128.0	341040.6188964844	1.1175219E7	58.696187579177334	813850.0	
754155.0	54.3908869494065	128.0	128.0	341041.5954589844	1.1175251E7	58.70484217463043	813970.0	
754850.0	54.441011481405674	128.0	128.0	341042.5720214844	1.1175283E7	58.71421798637128	814100.0	
754475.0	54.41396587061475	128.0	128.0	341043.5485839844	1.1175315E7	58.7207089329611	814190.0	
754650.0	54.426587155650516	128.0	128.0	341044.5251464844	1.1175347E7	58.72503623068765	814250.0	
754365.0	54.406032491449416	128.0	128.0	341045.5017089844	1.1175379E7	58.7293635284142	814310.0	
755100.0	54.45904188859962	128.0	128.0	341046.4782714844	1.1175411E7	58.730445352845834	814325.0	
753810.0	54.36600498747885	128.0	128.0	341047.4548339844	1.1175443E7	58.754245490341845	814655.0	
753825.0	54.36708681191049	128.0	128.0	341048.4313964844	1.1175475E7	58.768669816097	814855.0	
754630.0	54.425144723075	128.0	128.0	341049.4079589844	1.1175507E7	58.75532731477348	814670.0	
754375.0	54.406753707737174	128.0	128.0	341050.3845214844	1.1175539E7	58.74595150303263	814540.0	
754535.0	54.4182931683413	128.0	128.0	341051.3610839844	1.1175571E7	58.74775454375202	814565.0	
754735.0	54.43271749409646	128.0	128.0	341052.3376464844	1.1175603E7	58.73296960985299	814360.0	
754955.0	54.44858425242713	128.0	128.0	341053.3142089844	1.1175635E7	58.72611805511929	814265.0	
754820.0	54.4388478325424	128.0	128.0	341054.2907714844	1.1175667E7	58.7138573782274	814095.0	
754430.0	54.41072039731984	128.0	128.0	341055.2673339844	1.1175699E7	58.71457859451516	814105.0	
754040.0	54.382592962097284	128.0	128.0	341056.2438964844	1.1175731E7	58.709890688644734	814040.0	
753765.0	54.36275951418394	128.0	128.0	341057.2204589844	1.1175763E7	58.737296907579534	814420.0	
755000.0	54.45182972572204	128.0	128.0	341058.1970214844	1.1175795E7	58.72828170398256	814295.0	
754365.0	54.406032491449416	128.0	128.0	341059.1735839844	1.1175827E7	58.75280305776633	814635.0	
754575.0	54.42117803349233	128.0	128.0	341060.1501464844	1.1175859E7	58.75460609848572	814660.0	
754350.0	54.40495066701778	128.0	128.0	341061.1267089844	1.1175891E7	58.77660319526234	814965.0	
754115.0	54.38800208425547	128.0	128.0	341062.1032714844	1.1175923E7	58.76722738352149	814835.0	
754535.0	54.4182931683413	128.0	128.0	341063.0798339844	1.1175955E7	58.77876684412561	814995.0	
754870.0	54.44245391398119	128.0	128.0	341064.0563964844	1.1175987E7	58.788503264010345	815130.0	
752565.0	54.276213559652994	128.0	128.0	341065.0329589844	1.1176019E7	58.81482765851351	815495.0	
753315.0	54.33030478123484	128.0	128.0	341066.0095214844	1.1176051E7	58.81086096893084	815440.0	
752970.0	54.30542281930719	128.0	128.0	341066.9860839844	1.1176083E7	58.83069441684418	815715.0	
752730.0	54.288113628401	128.0	128.0	341067.9626464844	1.1176115E7	58.819154956240055	815555.0	
753585.0	54.3497776210043	128.0	128.0	341068.9392089844	1.1176147E7	58.82853076798091	815685.0	
753875.0	54.37069289334928	128.0	128.0	341069.9157714844	1.1176179E7	58.82817015983703	815680.0	
753155.0	54.31876532063071	128.0	128.0	341070.8923339844	1.1176211E7	58.825285294686	815640.0	
753970.0	54.37754444808298	128.0	128.0	341071.8688964844	1.1176243E7	58.808697320067566	815410.0	
753335.0	54.33174721381035	128.0	128.0	341072.8454589844	1.1176275E7	58.80653367120429	815380.0	
753395.0	54.3360745115369	128.0	128.0	341073.8220214844	1.1176307E7	58.79355177802465	815200.0	
754610.0	54.423702290499484	128.0	128.0	341074.7985839844	1.1176339E7	58.77371833011131	814925.0	
753610.0	54.351580661723695	128.0	128.0	341075.7751464844	1.1176371E7	58.7704728568164	814880.0	
754140.0	54.38980512497486	128.0	128.0	341076.7517089844	1.1176403E7	58.768669816097	814855.0	
754295.0	54.40098397743511	128.0	128.0	341077.7282714844	1.1176435E7	58.79463360245629	815215.0	
755065.0	54.45651763159247	128.0	128.0	341078.7048339844	1.1176467E7	58.80148515718999	815310.0	
754360.0	54.40567188330554	128.0	128.0	341079.6813964844	1.1176499E7	58.81735191552066	815530.0	
754385.0	54.40747492402493	128.0	128.0	341080.6579589844	1.1176531E7	58.81013975264308	815430.0	
754415.0	54.409638572888205	128.0	128.0	341081.6345214844	1.1176563E7	58.82023678067169	815570.0	
754805.0	54.43776600811076	128.0	128.0	341082.6110839844	1.1176595E7	58.836824755290124	815800.0	
755000.0	54.45182972572204	128.0	128.0	341083.5876464844	1.1176627E7	58.84079144487279	815855.0	
754550.0	54.41937499277294	128.0	128.0	341084.5642089844	1.1176659E7	58.829251984268666	815695.0	
754100.0	54.38692025982383	128.0	128.0	341085.5407714844	1.1176691E7	58.83069441684418	815715.0	
753970.0	54.37754444808298	128.0	128.0	341086.5173339844	1.1176723E7	58.83357928199521	815755.0	
753910.0	54.37321715035643	128.0	128.0	341087.4938964844	1.1176755E7	58.85305212176468	816025.0	
753215.0	54.32309261835726	128.0	128.0	341088.4704589844	1.1176787E7	58.857018811347345	816080.0	
755150.0	54.46264797003841	128.0	128.0	341089.4470214844	1.1176819E7	58.846561175174855	815935.0	
754235.0	54.39665667970856	128.0	128.0	341090.4235839844	1.1176851E7	58.85124908104528	816000.0	
754885.0	54.44353573841283	128.0	128.0	341091.4001464844	1.1176883E7	58.8458399588871	815925.0	
754905.0	54.44497817098834	128.0	128.0	341092.3767089844	1.1176915E7	58.836103539002366	815790.0	
754950.0	54.44822364428325	128.0	128.0	341093.3532714844	1.1176947E7	58.826367119117634	815655.0	
753635.0	54.35338370244309	128.0	128.0	341094.3298339844	1.1176979E7	58.8303338087003	815710.0	
754745.0	54.433438710384216	128.0	128.0	341095.3063964844	1.1177011E7	58.83754597157788	815810.0	
754420.0	54.409999181032084	128.0	128.0	341096.2829589844	1.1177043E7	58.832858065707455	815745.0	
753015.0	54.3086682926021	128.0	128.0	341097.2595214844	1.1177075E7	58.850527864757524	815990.0	
754855.0	54.44137208954955	128.0	128.0	341098.2360839844	1.1177107E7	58.833218673851334	815750.0	
754835.0	54.43992965697404	128.0	128.0	341099.2126464844	1.1177139E7	58.84079144487279	815855.0	
754450.0	54.41216282989536	128.0	128.0	341100.1892089844	1.1177171E7	58.84547935074322	815920.0	
753845.0	54.368529244486005	128.0	128.0	341101.1657714844	1.1177203E7	58.840070228585034	815845.0	
754370.0	54.406393099593295	128.0	128.0	341102.1423339844	1.1177235E7	58.84187326930443	815870.0	
753940.0	54.375380799219705	128.0	128.0	341103.1188964844	1.1177267E7	58.8663946230882	816210.0	
753540.0	54.34653214770939	128.0	128.0	341104.0954589844	1.1177299E7	58.8645915823688	816185.0	
753745.0	54.361317081608426	128.0	128.0	341105.0720214844	1.1177331E7	58.874328002253534	816320.0	
755070.0	54.45687823973635	128.0	128.0	341106.0485839844	1.1177363E7	58.88298259770663	816440.0	
753340.0	54.33210782195423	128.0	128.0	341107.0251464844	1.1177395E7	58.90642212705876	816765.0	
754135.0	54.389444516830984	128.0	128.0	341108.0017089844	1.1177427E7	58.90425847819549	816735.0	
754465.0	54.413244654326995	128.0	128.0	341108.9782714844	1.1177459E7	58.897767531605666	816645.0	
754075.0	54.38511721910444	128.0	128.0	341109.9548339844	1.1177491E7	58.897767531605666	816645.0	
754705.0	54.430553845233185	128.0	128.0	341110.9313964844	1.1177523E7	58.8851462465699	816470.0	
754160.0	54.39124755755038	128.0	128.0	341111.9079589844	1.1177555E7	58.86819766380759	816235.0	
754095.0	54.38655965167995	128.0	128.0	341112.8845214844	1.1177587E7	58.8526915136208	816020.0	
754715.0	54.43127506152094	128.0	128.0	341113.8610839844	1.1177619E7	58.82744894354927	815670.0	
753590.0	54.35013822914818	128.0	128.0	341114.8376464844	1.1177651E7	58.84259448559219	815880.0	
752600.0	54.27873781666015	128.0	128.0	341115.8142089844	1.1177683E7	58.846561175174855	815935.0	
752390.0	54.26359227461723	128.0	128.0	341116.7907714844	1.1177715E7	58.837185363434	815805.0	
752405.0	54.26467409904887	128.0	128.0	341117.7673339844	1.1177747E7	58.8526915136208	816020.0	
752930.0	54.30253795415616	128.0	128.0	341118.7438964844	1.1177779E7	58.8526915136208	816020.0	
753610.0	54.351580661723695	128.0	128.0	341119.7204589844	1.1177811E7	58.843315701879945	815890.0	
753230.0	54.324174442788895	128.0	128.0	341120.6970214844	1.1177843E7	58.85305212176468	816025.0	
753485.0	54.34256545812672	128.0	128.0	341121.6735839844	1.1177875E7	58.8714431371025	816280.0	
753670.0	54.35590795945024	128.0	128.0	341122.6501464844	1.1177907E7	58.86927948823923	816250.0	
753290.0	54.32850174051544	128.0	128.0	341123.6267089844	1.1177939E7	58.88911293615257	816525.0	
753650.0	54.354465526874726	128.0	128.0	341124.6032714844	1.1177971E7	58.880818948843356	816410.0	
754170.0	54.39196877383814	128.0	128.0	341125.5798339844	1.1178003E7	58.87540982668517	816335.0	
754125.0	54.38872330054323	128.0	128.0	341126.5563964844	1.1178035E7	58.8869492872893	816495.0	
754885.0	54.44353573841283	128.0	128.0	341127.5329589844	1.1178067E7	58.90714334334652	816775.0	
755050.0	54.45543580716083	128.0	128.0	341128.5095214844	1.1178099E7	58.904619086339366	816740.0	
753985.0	54.378626272514616	128.0	128.0	341129.4860839844	1.1178131E7	58.89704631531791	816635.0	
754310.0	54.40206580186675	128.0	128.0	341130.4626464844	1.1178163E7	58.9075039514904	816780.0	
753195.0	54.32165018578174	128.0	128.0	341131.4392089844	1.1178195E7	58.904979694483245	816745.0	
754660.0	54.427308371938274	128.0	128.0	341132.4157714844	1.1178227E7	58.87180374524638	816285.0	
753895.0	54.372135325924795	128.0	128.0	341133.3923339844	1.1178259E7	58.87360678596578	816310.0	
755080.0	54.457599456024106	128.0	128.0	341134.3688964844	1.1178291E7	58.86603401494432	816205.0	
753965.0	54.3771838399391	128.0	128.0	341135.3454589844	1.1178323E7	58.86531279865656	816195.0	
754575.0	54.42117803349233	128.0	128.0	341136.3220214844	1.1178355E7	58.85918246021062	816110.0	
755060.0	54.45615702344859	128.0	128.0	341137.2985839844	1.1178387E7	58.86531279865656	816195.0	
754450.0	54.41216282989536	128.0	128.0	341138.2751464844	1.1178419E7	58.87937651626784	816390.0	
754415.0	54.409638572888205	128.0	128.0	341139.2517089844	1.1178451E7	58.891276585015845	816555.0	
755075.0	54.45723884788023	128.0	128.0	341140.2282714844	1.1178483E7	58.89344023387912	816585.0	
755215.0	54.46733587590884	128.0	128.0	341141.2048339844	1.1178515E7	58.9006523967567	816685.0	
754745.0	54.433438710384216	128.0	128.0	341142.1813964844	1.1178547E7	58.904619086339366	816740.0	
755185.0	54.465172227045564	128.0	128.0	341143.1579589844	1.1178579E7	58.90678273520264	816770.0	
755100.0	54.45904188859962	128.0	128.0	341144.1345214844	1.1178611E7	58.908585775922035	816795.0	
754510.0	54.416490127621906	128.0	128.0	341145.1110839844	1.1178643E7	58.91724037137513	816915.0	
754825.0	54.43920844068628	128.0	128.0	341146.0876464844	1.1178675E7	58.929140440123135	817080.0	
754975.0	54.45002668500265	128.0	128.0	341147.0642089844	1.1178707E7	58.929140440123135	817080.0	
754660.0	54.427308371938274	128.0	128.0	341148.0407714844	1.1178739E7	58.94717084731708	817330.0	
754665.0	54.42766898008215	128.0	128.0	341149.0173339844	1.1178771E7	58.95113753689975	817385.0	
755435.0	54.48320263423952	128.0	128.0	341149.9938964844	1.1178803E7	58.945728414741566	817310.0	
754840.0	54.440290265117916	128.0	128.0	341150.9704589844	1.1178835E7	58.93454956228132	817155.0	
754505.0	54.41612951947803	128.0	128.0	341151.9470214844	1.1178867E7	58.93094348084253	817105.0	
755175.0	54.464451010757806	128.0	128.0	341152.9235839844	1.1178899E7	58.925173750540466	817025.0	
755045.0	54.45507519901695	128.0	128.0	341153.9001464844	1.1178931E7	58.897767531605666	816645.0	
755055.0	54.45579641530471	128.0	128.0	341154.8767089844	1.1178963E7	58.88983415244033	816535.0	
755085.0	54.457960064167985	128.0	128.0	341155.8532714844	1.1178995E7	58.88983415244033	816535.0	
754980.0	54.45038729314653	128.0	128.0	341156.8298339844	1.1179027E7	58.89019476058421	816540.0	
754450.0	54.41216282989536	128.0	128.0	341157.8063964844	1.1179059E7	58.90425847819549	816735.0	
754630.0	54.425144723075	128.0	128.0	341158.7829589844	1.1179091E7	58.92841922383538	817070.0	
753455.0	54.34040180926345	128.0	128.0	341159.7595214844	1.1179123E7	58.94067990072726	817240.0	
755745.0	54.50556033916001	128.0	128.0	341160.7360839844	1.1179155E7	58.91074942478531	816825.0	
754720.0	54.43163566966482	128.0	128.0	341161.7126464844	1.1179187E7	58.93527077856908	817165.0	
753955.0	54.37646262365134	128.0	128.0	341162.6892089844	1.1179219E7	58.932385913418045	817125.0	
754925.0	54.44642060356386	128.0	128.0	341163.6657714844	1.1179251E7	58.93743442743235	817195.0	
753075.0	54.31299559032865	128.0	128.0	341164.6423339844	1.1179283E7	58.965561862654916	817585.0	
753100.0	54.31479863104804	128.0	128.0	341165.6188964844	1.1179315E7	58.94717084731708	817330.0	
752810.0	54.29388335870306	128.0	128.0	341166.5954589844	1.1179347E7	58.95762848348957	817475.0	
752825.0	54.2949651831347	128.0	128.0	341167.5720214844	1.1179379E7	58.950055712468114	817370.0	
754135.0	54.389444516830984	128.0	128.0	341168.5485839844	1.1179411E7	58.9399586844395	817230.0	
753760.0	54.36239890604006	128.0	128.0	341169.5251464844	1.1179443E7	58.943204157734414	817275.0	
753115.0	54.31588045547968	128.0	128.0	341170.5017089844	1.1179475E7	58.92373131796495	817005.0	
754720.0	54.43163566966482	128.0	128.0	341171.4782714844	1.1179507E7	58.92841922383538	817070.0	
753710.0	54.358792824601274	128.0	128.0	341172.4548339844	1.1179539E7	58.92084645281392	816965.0	
753615.0	54.351941269867574	128.0	128.0	341173.4313964844	1.1179571E7	58.922288885389435	816985.0	
754905.0	54.44497817098834	128.0	128.0	341174.4079589844	1.1179603E7	58.91615854694349	816900.0	
754530.0	54.41793256019742	128.0	128.0	341175.3845214844	1.1179635E7	58.91399489808022	816870.0	
753195.0	54.32165018578174	128.0	128.0	341176.3610839844	1.1179667E7	58.912191857360824	816845.0	
754440.0	54.4114416136076	128.0	128.0	341177.3376464844	1.1179699E7	58.89740692346179	816640.0	
754430.0	54.41072039731984	128.0	128.0	341178.3142089844	1.1179731E7	58.901734221188335	816700.0	
754190.0	54.39341120641365	128.0	128.0	341179.2907714844	1.1179763E7	58.9212070609578	816970.0	
754540.0	54.41865377648518	128.0	128.0	341180.2673339844	1.1179795E7	58.919043412094524	816940.0	
754225.0	54.395935463420805	128.0	128.0	341181.2438964844	1.1179827E7	58.9280586156915	817065.0	
754930.0	54.44678121170774	128.0	128.0	341182.2204589844	1.1179859E7	58.92481314239659	817020.0	
754265.0	54.39882032857184	128.0	128.0	341183.1970214844	1.1179891E7	58.93743442743235	817195.0	
755045.0	54.45507519901695	128.0	128.0	341184.1735839844	1.1179923E7	58.943204157734414	817275.0	
754450.0	54.41216282989536	128.0	128.0	341185.1501464844	1.1179955E7	58.943204157734414	817275.0	
753690.0	54.35735039202576	128.0	128.0	341186.1267089844	1.1179987E7	58.950055712468114	817370.0	
754280.0	54.399902153003474	128.0	128.0	341187.1032714844	1.1180019E7	58.953301185763024	817415.0	
754875.0	54.44281452212507	128.0	128.0	341188.0798339844	1.1180051E7	58.962676997503884	817545.0	
755345.0	54.47671168764969	128.0	128.0	341189.0563964844	1.1180083E7	58.962316389360005	817540.0	
754675.0	54.42839019636991	128.0	128.0	341190.0329589844	1.1180115E7	58.949334496180356	817360.0	
755045.0	54.45507519901695	128.0	128.0	341191.0095214844	1.1180147E7	58.95113753689975	817385.0	
755415.0	54.481760201664	128.0	128.0	341191.9860839844	1.1180179E7	58.93671321114459	817185.0	
754995.0	54.45146911757816	128.0	128.0	341192.9626464844	1.1180211E7	58.93022226455477	817095.0	
755105.0	54.4594024967435	128.0	128.0	341193.9392089844	1.1180243E7	58.908585775922035	816795.0	
755105.0	54.4594024967435	128.0	128.0	341194.9157714844	1.1180275E7	58.90281604561997	816715.0	
754905.0	54.44497817098834	128.0	128.0	341195.8923339844	1.1180307E7	58.897767531605666	816645.0	
755385.0	54.47959655280072	128.0	128.0	341196.8688964844	1.1180339E7	58.90029178861282	816680.0	
754775.0	54.43560235924749	128.0	128.0	341197.8454589844	1.1180371E7	58.929140440123135	817080.0	
755320.0	54.474908646930295	128.0	128.0	341198.8220214844	1.1180403E7	58.95149814504363	817390.0	
754420.0	54.409999181032084	128.0	128.0	341199.7985839844	1.1180435E7	58.96375882193552	817560.0	
755090.0	54.458320672311864	128.0	128.0	341200.7751464844	1.1180467E7	58.976019498827405	817730.0	
754665.0	54.42766898008215	128.0	128.0	341201.7517089844	1.1180499E7	58.98503470242438	817855.0	
754910.0	54.44533877913222	128.0	128.0	341202.7282714844	1.1180531E7	58.98431348613662	817845.0	
754770.0	54.43524175110361	128.0	128.0	341203.7048339844	1.1180563E7	58.979264972122316	817775.0	
754330.0	54.40350823444226	128.0	128.0	341204.6813964844	1.1180595E7	58.989722608294805	817920.0	
754880.0	54.44317513026895	128.0	128.0	341205.6579589844	1.1180627E7	58.99513173045299	817995.0	
754895.0	54.444256954700585	128.0	128.0	341206.6345214844	1.1180659E7	59.0052287584816	818135.0	
755075.0	54.45723884788023	128.0	128.0	341207.6110839844	1.1180691E7	59.03371680184804	818530.0	
755535.0	54.4904147971171	128.0	128.0	341208.5876464844	1.1180723E7	59.03515923442355	818550.0	
755275.0	54.471663173635385	128.0	128.0	341209.5642089844	1.1180755E7	59.03696227514295	818575.0	
754925.0	54.44642060356386	128.0	128.0	341210.5407714844	1.1180787E7	59.03551984256743	818555.0	
755605.0	54.4954633111314	128.0	128.0	341211.5173339844	1.1180819E7	59.017128827229605	818300.0	
755275.0	54.471663173635385	128.0	128.0	341212.4938964844	1.1180851E7	59.01099848878366	818215.0	
755045.0	54.45507519901695	128.0	128.0	341213.4704589844	1.1180883E7	59.00270450147445	818100.0	
754160.0	54.39124755755038	128.0	128.0	341214.4470214844	1.1180915E7	59.044895654308284	818685.0	
753035.0	54.310110725177616	128.0	128.0	341215.4235839844	1.1180947E7	59.04958356017871	818750.0	
753870.0	54.3703322852054	128.0	128.0	341216.4001464844	1.1180979E7	59.05282903347362	818795.0	
752810.0	54.29388335870306	128.0	128.0	341217.3767089844	1.1181011E7	59.07013822437981	819035.0	
754140.0	54.38980512497486	128.0	128.0	341218.3532714844	1.1181043E7	59.07482613025024	819100.0	
753920.0	54.37393836664419	128.0	128.0	341219.3298339844	1.1181075E7	59.08492315827885	819240.0	
753865.0	54.36997167706152	128.0	128.0	341220.3063964844	1.1181107E7	59.109444512062616	819580.0	
754495.0	54.41540830319027	128.0	128.0	341221.2829589844	1.1181139E7	59.12819613554432	819840.0	
754560.0	54.420096209060695	128.0	128.0	341222.2595214844	1.1181171E7	59.15019323232094	820145.0	
753900.0	54.372495934068674	128.0	128.0	341223.2360839844	1.1181203E7	59.16750242322713	820385.0	
754380.0	54.40711431588105	128.0	128.0	341224.2126464844	1.1181235E7	59.17255093724143	820455.0	
754445.0	54.41180222175148	128.0	128.0	341225.1892089844	1.1181267E7	59.18733587114047	820660.0	
755060.0	54.45615702344859	128.0	128.0	341226.1657714844	1.1181299E7	59.20825114348545	820950.0	
754575.0	54.42117803349233	128.0	128.0	341227.1423339844	1.1181331E7	59.216184522650785	821060.0	
755345.0	54.47671168764969	128.0	128.0	341228.1188964844	1.1181363E7	59.22916641583043	821240.0	
755170.0	54.46409040261393	128.0	128.0	341229.0954589844	1.1181395E7	59.2381816194274	821365.0	
754595.0	54.42262046606785	128.0	128.0	341230.0720214844	1.1181427E7	59.247196823024375	821490.0	
755255.0	54.47022074105987	128.0	128.0	341231.0485839844	1.1181459E7	59.24899986374377	821515.0	
755195.0	54.46589344333332	128.0	128.0	341232.0251464844	1.1181491E7	59.239984660146796	821390.0	
754810.0	54.43812661625464	128.0	128.0	341233.0017089844	1.1181523E7	59.24647560673662	821480.0	
754270.0	54.399180936715716	128.0	128.0	341233.9782714844	1.1181555E7	59.23457553798861	821315.0	
755470.0	54.48572689124667	128.0	128.0	341234.9548339844	1.1181587E7	59.219790604089575	821110.0	
754325.0	54.403147626298384	128.0	128.0	341235.9313964844	1.1181619E7	59.243951349729464	821445.0	
755470.0	54.48572689124667	128.0	128.0	341236.9079589844	1.1181651E7	59.233493713556975	821300.0	
754775.0	54.43560235924749	128.0	128.0	341237.8845214844	1.1181683E7	59.25837567548462	821645.0	
754625.0	54.42478411493112	128.0	128.0	341238.8610839844	1.1181715E7	59.2587362836285	821650.0	
755785.0	54.508445204311045	128.0	128.0	341239.8376464844	1.1181747E7	59.250442296319285	821535.0	
754900.0	54.44461756284446	128.0	128.0	341240.8142089844	1.1181779E7	59.268112095369354	821780.0	
754790.0	54.43668418367913	128.0	128.0	341241.7907714844	1.1181811E7	59.25549081033359	821605.0	
754700.0	54.430193237089306	128.0	128.0	341242.7673339844	1.1181843E7	59.26162114877953	821690.0	
754040.0	54.382592962097284	128.0	128.0	341243.7438964844	1.1181875E7	59.25585141847747	821610.0	
754590.0	54.42225985792397	128.0	128.0	341244.7204589844	1.1181907E7	59.24431195787334	821450.0	
753885.0	54.37141410963704	128.0	128.0	341245.6970214844	1.1181939E7	59.25260594518256	821565.0	
755725.0	54.5041179065845	128.0	128.0	341246.6735839844	1.1181971E7	59.23060884840594	821260.0	
755060.0	54.45615702344859	128.0	128.0	341247.6501464844	1.1182003E7	59.25945749991626	821660.0	
753965.0	54.3771838399391	128.0	128.0	341248.6267089844	1.1182035E7	59.257654459196864	821635.0	
754910.0	54.44533877913222	128.0	128.0	341249.6032714844	1.1182067E7	59.243230133441706	821435.0	
754220.0	54.39557485527693	128.0	128.0	341250.5798339844	1.1182099E7	59.22772398325491	821220.0	
754530.0	54.41793256019742	128.0	128.0	341251.5563964844	1.1182131E7	59.19959654803235	820830.0	
754535.0	54.4182931683413	128.0	128.0	341252.5329589844	1.1182163E7	59.182287357126164	820590.0	
754955.0	54.44858425242713	128.0	128.0	341253.5095214844	1.1182195E7	59.16750242322713	820385.0	
755625.0	54.49690574370692	128.0	128.0	341254.4860839844	1.1182227E7	59.13324464955863	819910.0	
755060.0	54.45615702344859	128.0	128.0	341255.4626464844	1.1182259E7	59.13180221698311	819890.0	
754415.0	54.409638572888205	128.0	128.0	341256.4392089844	1.1182291E7	59.13180221698311	819890.0	
754160.0	54.39124755755038	128.0	128.0	341257.4157714844	1.1182323E7	59.17002668023428	820420.0	
754285.0	54.40026276114735	128.0	128.0	341258.3923339844	1.1182355E7	59.164256949932216	820340.0	
755080.0	54.457599456024106	128.0	128.0	341259.3688964844	1.1182387E7	59.16533877436385	820355.0	
754155.0	54.3908869494065	128.0	128.0	341260.3454589844	1.1182419E7	59.168584247658764	820400.0	
755310.0	54.47418743064254	128.0	128.0	341261.3220214844	1.1182451E7	59.17327215352919	820465.0	
755015.0	54.45291155015368	128.0	128.0	341262.2985839844	1.1182483E7	59.17363276167307	820470.0	
754520.0	54.41721134390966	128.0	128.0	341263.2751464844	1.1182515E7	59.20825114348545	820950.0	
752960.0	54.30470160301943	128.0	128.0	341264.2517089844	1.1182547E7	59.223036077384485	821155.0	
753060.0	54.31191376589701	128.0	128.0	341265.2282714844	1.1182579E7	59.22051182037733	821120.0	
753210.0	54.32273201021338	128.0	128.0	341266.2048339844	1.1182611E7	59.222675469240606	821150.0	
752610.0	54.279459032947905	128.0	128.0	341267.1813964844	1.1182643E7	59.2313300646937	821270.0	
753670.0	54.35590795945024	128.0	128.0	341268.1579589844	1.1182675E7	59.21474209007527	821040.0	
753785.0	54.36420194675946	128.0	128.0	341269.1345214844	1.1182707E7	59.22483911810388	821180.0	
754455.0	54.41252343803924	128.0	128.0	341270.1110839844	1.1182739E7	59.226642158823275	821205.0	
754740.0	54.43307810224034	128.0	128.0	341271.0876464844	1.1182771E7	59.209693576060964	820970.0	
753670.0	54.35590795945024	128.0	128.0	341272.0642089844	1.1182803E7	59.20825114348545	820950.0	
754040.0	54.382592962097284	128.0	128.0	341273.0407714844	1.1182835E7	59.1970722910252	820795.0	
754190.0	54.39341120641365	128.0	128.0	341274.0173339844	1.1182867E7	59.18300857341392	820600.0	
754100.0	54.38692025982383	128.0	128.0	341274.9938964844	1.1182899E7	59.17399336981695	820475.0	
754295.0	54.40098397743511	128.0	128.0	341275.9704589844	1.1182931E7	59.15884782777403	820265.0	
755210.0	54.46697526776496	128.0	128.0	341276.9470214844	1.1182963E7	59.17002668023428	820420.0	
754590.0	54.42225985792397	128.0	128.0	341277.9235839844	1.1182995E7	59.182287357126164	820590.0	
754870.0	54.44245391398119	128.0	128.0	341278.9001464844	1.1183027E7	59.19454803401805	820760.0	
754400.0	54.40855674845657	128.0	128.0	341279.8767089844	1.1183059E7	59.19058134443538	820705.0	
754390.0	54.40783553216881	128.0	128.0	341280.8532714844	1.1183091E7	59.21726634708242	821075.0	
754545.0	54.41901438462906	128.0	128.0	341281.8298339844	1.1183123E7	59.198875331744595	820820.0	
754885.0	54.44353573841283	128.0	128.0	341282.8063964844	1.1183155E7	59.21041479234872	820980.0	
755330.0	54.47562986321805	128.0	128.0	341283.7829589844	1.1183187E7	59.21329965749975	821020.0	
754975.0	54.45002668500265	128.0	128.0	341284.7595214844	1.1183219E7	59.21402087378751	821030.0	
755140.0	54.46192675375065	128.0	128.0	341285.7360839844	1.1183251E7	59.21834817151406	821090.0	
754870.0	54.44245391398119	128.0	128.0	341286.7126464844	1.1183283E7	59.22519972624776	821185.0	
754825.0	54.43920844068628	128.0	128.0	341287.6892089844	1.1183315E7	59.23493614613249	821320.0	
755135.0	54.461566145606774	128.0	128.0	341288.6657714844	1.1183347E7	59.22880580768655	821235.0	
755200.0	54.4662540514772	128.0	128.0	341289.6423339844	1.1183379E7	59.22087242852121	821125.0	
755070.0	54.45687823973635	128.0	128.0	341290.6188964844	1.1183411E7	59.21041479234872	820980.0	
754465.0	54.413244654326995	128.0	128.0	341291.5954589844	1.1183443E7	59.19418742587417	820755.0	
755635.0	54.497626959994676	128.0	128.0	341292.5720214844	1.1183475E7	59.18445100598944	820620.0	
754970.0	54.44966607685877	128.0	128.0	341293.5485839844	1.1183507E7	59.161011476637306	820295.0	
754670.0	54.42802958822603	128.0	128.0	341294.5251464844	1.1183539E7	59.15920843591791	820270.0	
754820.0	54.4388478325424	128.0	128.0	341295.5017089844	1.1183571E7	59.15920843591791	820270.0	
754155.0	54.3908869494065	128.0	128.0	341296.4782714844	1.1183603E7	59.1628145173567	820320.0	
755450.0	54.484284458671155	128.0	128.0	341297.4548339844	1.1183635E7	59.181566140838406	820580.0	
754345.0	54.4045900588739	128.0	128.0	341298.4313964844	1.1183667E7	59.19274499329865	820735.0	
755605.0	54.4954633111314	128.0	128.0	341299.4079589844	1.1183699E7	59.19995715617623	820835.0	
755050.0	54.45543580716083	128.0	128.0	341300.3845214844	1.1183731E7	59.20861175162933	820955.0	
754385.0	54.40747492402493	128.0	128.0	341301.3610839844	1.1183763E7	59.20789053534157	820945.0	
755095.0	54.45868128045574	128.0	128.0	341302.3376464844	1.1183795E7	59.20716931905381	820935.0	
755695.0	54.50195425772122	128.0	128.0	341303.3142089844	1.1183827E7	59.21798756337018	821085.0	
755010.0	54.4525509420098	128.0	128.0	341304.2907714844	1.1183859E7	59.21834817151406	821090.0	
754865.0	54.44209330583731	128.0	128.0	341305.2673339844	1.1183891E7	59.22195425295285	821140.0	
755135.0	54.461566145606774	128.0	128.0	341306.2438964844	1.1183923E7	59.22556033439164	821190.0	
755170.0	54.46409040261393	128.0	128.0	341307.2204589844	1.1183955E7	59.24142709272231	821410.0	
753670.0	54.35590795945024	128.0	128.0	341308.1970214844	1.1183987E7	59.254048377758075	821585.0	
754360.0	54.40567188330554	128.0	128.0	341309.1735839844	1.1184019E7	59.250442296319285	821535.0	
755005.0	54.45219033386592	128.0	128.0	341310.1501464844	1.1184051E7	59.237099794995764	821350.0	
754320.0	54.402787018154505	128.0	128.0	341311.1267089844	1.1184083E7	59.24431195787334	821450.0	
754695.0	54.42983262894543	128.0	128.0	341312.1032714844	1.1184115E7	59.21798756337018	821085.0	
754760.0	54.43452053481585	128.0	128.0	341313.0798339844	1.1184147E7	59.21510269821915	821045.0	
752845.0	54.296407615710216	128.0	128.0	341314.0563964844	1.1184179E7	59.233133105413096	821295.0	
753840.0	54.368168636342126	128.0	128.0	341315.0329589844	1.1184211E7	59.22880580768655	821235.0	
752080.0	54.241234569696736	128.0	128.0	341316.0095214844	1.1184243E7	59.22772398325491	821220.0	
753225.0	54.323813834645016	128.0	128.0	341316.9860839844	1.1184275E7	59.22592094253552	821195.0	
754425.0	54.41035978917596	128.0	128.0	341317.9626464844	1.1184307E7	59.23241188912534	821285.0	
754440.0	54.4114416136076	128.0	128.0	341318.9392089844	1.1184339E7	59.24250891715395	821425.0	
753645.0	54.35410491873085	128.0	128.0	341319.9157714844	1.1184371E7	59.25585141847747	821610.0	
754475.0	54.41396587061475	128.0	128.0	341320.8923339844	1.1184403E7	59.25549081033359	821605.0	
753955.0	54.37646262365134	128.0	128.0	341321.8688964844	1.1184435E7	59.281815204836754	821970.0	
754295.0	54.40098397743511	128.0	128.0	341322.8454589844	1.1184467E7	59.27604547453469	821890.0	
754495.0	54.41540830319027	128.0	128.0	341323.8220214844	1.1184499E7	59.27965155597348	821940.0	
754585.0	54.42189924978009	128.0	128.0	341324.7985839844	1.1184531E7	59.28902736771433	822070.0	
755465.0	54.48536628310279	128.0	128.0	341325.7751464844	1.1184563E7	59.28578189441942	822025.0	
754975.0	54.45002668500265	128.0	128.0	341326.7517089844	1.1184595E7	59.29010919214597	822085.0	
755465.0	54.48536628310279	128.0	128.0	341327.7282714844	1.1184627E7	59.30417290975725	822280.0	
755335.0	54.47599047136193	128.0	128.0	341328.7048339844	1.1184659E7	59.29623953059191	822170.0	
755280.0	54.472023781779264	128.0	128.0	341329.6813964844	1.1184691E7	59.29732135502355	822185.0	
754455.0	54.41252343803924	128.0	128.0	341330.6579589844	1.1184723E7	59.295157706160275	822155.0	
755435.0	54.48320263423952	128.0	128.0	341331.6345214844	1.1184755E7	59.28974858400209	822080.0	
754840.0	54.440290265117916	128.0	128.0	341332.6110839844	1.1184787E7	59.281454596692875	821965.0	
754875.0	54.44281452212507	128.0	128.0	341333.5876464844	1.1184819E7	59.250802904463164	821540.0	
755620.0	54.49654513556304	128.0	128.0	341334.5642089844	1.1184851E7	59.24827864745601	821505.0	
754185.0	54.393050598269774	128.0	128.0	341335.5407714844	1.1184883E7	59.25657263476523	821620.0	
754855.0	54.44137208954955	128.0	128.0	341336.5173339844	1.1184915E7	59.2587362836285	821650.0	
754880.0	54.44317513026895	128.0	128.0	341337.4938964844	1.1184947E7	59.28578189441942	822025.0	
754900.0	54.44461756284446	128.0	128.0	341338.4704589844	1.1184979E7	59.288666759570454	822065.0	
754520.0	54.41721134390966	128.0	128.0	341339.4470214844	1.1185011E7	59.302009260893975	822250.0	
754655.0	54.426947763794395	128.0	128.0	341340.4235839844	1.1185043E7	59.30453351790113	822285.0	
755300.0	54.47346621435478	128.0	128.0	341341.4001464844	1.1185075E7	59.319318451800164	822490.0	
754265.0	54.39882032857184	128.0	128.0	341342.3767089844	1.1185107E7	59.322924533238954	822540.0	
755610.0	54.49582391927528	128.0	128.0	341343.3532714844	1.1185139E7	59.32184270880732	822525.0	
755095.0	54.45868128045574	128.0	128.0	341344.3298339844	1.1185171E7	59.33085791240429	822650.0	
755175.0	54.464451010757806	128.0	128.0	341345.3063964844	1.1185203E7	59.33374277755532	822690.0	
755660.0	54.49943000071407	128.0	128.0	341346.2829589844	1.1185235E7	59.33807007528187	822750.0	
754605.0	54.423341682355606	128.0	128.0	341347.2595214844	1.1185267E7	59.34816710331048	822890.0	
754775.0	54.43560235924749	128.0	128.0	341348.2360839844	1.1185299E7	59.361509604634	823075.0	
755055.0	54.45579641530471	128.0	128.0	341349.2126464844	1.1185331E7	59.353215617324786	822960.0	
755085.0	54.457960064167985	128.0	128.0	341350.1892089844	1.1185363E7	59.339512507857386	822770.0	
755805.0	54.50988763688656	128.0	128.0	341351.1657714844	1.1185395E7	59.32797304725326	822610.0	
755320.0	54.474908646930295	128.0	128.0	341352.1423339844	1.1185427E7	59.31751541108077	822465.0	
754435.0	54.41108100546372	128.0	128.0	341353.1188964844	1.1185459E7	59.30777899119604	822330.0	
755385.0	54.47959655280072	128.0	128.0	341354.0954589844	1.1185491E7	59.298042571311306	822195.0	
755595.0	54.494742094843645	128.0	128.0	341355.0720214844	1.1185523E7	59.29010919214597	822085.0	
755180.0	54.464811618901685	128.0	128.0	341356.0485839844	1.1185555E7	59.27712729896633	821905.0	
755115.0	54.46012371303126	128.0	128.0	341357.0251464844	1.1185587E7	59.291551624721485	822105.0	
755060.0	54.45615702344859	128.0	128.0	341358.0017089844	1.1185619E7	59.30597595047664	822305.0	
754825.0	54.43920844068628	128.0	128.0	341358.9782714844	1.1185651E7	59.318957843656285	822485.0	
755840.0	54.51241189389371	128.0	128.0	341359.9548339844	1.1185683E7	59.322563925095075	822535.0	
754745.0	54.433438710384216	128.0	128.0	341360.9313964844	1.1185715E7	59.3204002762318	822505.0	
756130.0	54.53332716623869	128.0	128.0	341361.9079589844	1.1185747E7	59.32689122282162	822595.0	
754600.0	54.42298107421173	128.0	128.0	341362.8845214844	1.1185779E7	59.33230034497981	822670.0	
753970.0	54.37754444808298	128.0	128.0	341363.8610839844	1.1185811E7	59.361509604634	823075.0	
753835.0	54.36780802819825	128.0	128.0	341364.8376464844	1.1185843E7	59.36619751050443	823140.0	
753795.0	54.364923163047216	128.0	128.0	341365.8142089844	1.1185875E7	59.36944298379934	823185.0	
754355.0	54.40531127516166	128.0	128.0	341366.7907714844	1.1185907E7	59.377736971108554	823300.0	
754850.0	54.441011481405674	128.0	128.0	341367.7673339844	1.1185939E7	59.38314609326674	823375.0	
754115.0	54.38800208425547	128.0	128.0	341368.7438964844	1.1185971E7	59.380982444403465	823345.0	
755405.0	54.481038985376244	128.0	128.0	341369.7204589844	1.1186003E7	59.370164200087096	823195.0	
754825.0	54.43920844068628	128.0	128.0	341370.6970214844	1.1186035E7	59.363312645353396	823100.0	
755250.0	54.46986013291599	128.0	128.0	341371.6735839844	1.1186067E7	59.34383980558393	822830.0	
754280.0	54.399902153003474	128.0	128.0	341372.6501464844	1.1186099E7	59.33121852054817	822655.0	
754455.0	54.41252343803924	128.0	128.0	341373.6267089844	1.1186131E7	59.30597595047664	822305.0	
755395.0	54.48031776908849	128.0	128.0	341374.6032714844	1.1186163E7	59.312106288922585	822390.0	
754820.0	54.4388478325424	128.0	128.0	341375.5798339844	1.1186195E7	59.33230034497981	822670.0	
754675.0	54.42839019636991	128.0	128.0	341376.5563964844	1.1186227E7	59.32544879024611	822575.0	
755795.0	54.5091664205988	128.0	128.0	341377.5329589844	1.1186259E7	59.33807007528187	822750.0	
754575.0	54.42117803349233	128.0	128.0	341378.5095214844	1.1186291E7	59.363312645353396	823100.0	
755660.0	54.49943000071407	128.0	128.0	341379.4860839844	1.1186323E7	59.350330752173754	822920.0	
754910.0	54.44533877913222	128.0	128.0	341380.4626464844	1.1186355E7	59.367279334936065	823155.0	
