idDB4A	idDB4A	idDB4A	idDB4A	idDB4A	idDB4A	idDB4A	idDB4A	
EMG_CH2_24BIT	EMG_CH2_24BIT	ECG_EMG_Status1	ECG_EMG_Status1	Timestamp	Timestamp	EMG_CH1_24BIT	EMG_CH1_24BIT	
UNCAL	CAL	UNCAL	CAL	CAL	UNCAL	CAL	UNCAL	
no_units	mV	no_units	no_units	ms	Ticks	mV	no_units	
755665.0	54.49979060885795	128.0	128.0	168827.72827148438	5532147.0	-84.43711810554483	-1170760.0	
755825.0	54.511330069462076	128.0	128.0	168828.70483398438	5532179.0	-84.46272128376023	-1171115.0	
756045.0	54.52719682779275	128.0	128.0	168829.68139648438	5532211.0	-84.48471838053685	-1171420.0	
755995.0	54.52359074635396	128.0	128.0	168830.65795898438	5532243.0	-84.5009457470114	-1171645.0	
755475.0	54.48608749939055	128.0	128.0	168831.63452148438	5532275.0	-84.50887912617674	-1171755.0	
756070.0	54.528999868512145	128.0	128.0	168832.61108398438	5532307.0	-84.57234615949943	-1172635.0	
755845.0	54.51277250203759	128.0	128.0	168833.58764648438	5532339.0	-84.70000144243258	-1174405.0	
755885.0	54.51565736718862	128.0	128.0	168834.56420898438	5532371.0	-84.79664442499214	-1175745.0	
756385.0	54.55171818157652	128.0	128.0	168835.54077148438	5532403.0	-84.8640781478975	-1176680.0	
755745.0	54.50556033916001	128.0	128.0	168836.51733398438	5532435.0	-84.86948727005569	-1176755.0	
756245.0	54.54162115354791	128.0	128.0	168837.49389648438	5532467.0	-84.8521780791495	-1176515.0	
756175.0	54.5365726395336	128.0	128.0	168838.47045898438	5532499.0	-84.76923820605734	-1175365.0	
756255.0	54.542342369835666	128.0	128.0	168839.44702148438	5532531.0	-84.64915569414565	-1173700.0	
755490.0	54.48716932382219	128.0	128.0	168840.42358398438	5532563.0	-84.5301550066656	-1172050.0	
755275.0	54.471663173635385	128.0	128.0	168841.40014648438	5532595.0	-84.38915722240893	-1170095.0	
756085.0	54.53008169294378	128.0	128.0	168842.37670898438	5532627.0	-84.35273579987715	-1169590.0	
756235.0	54.54089993726015	128.0	128.0	168843.35327148438	5532659.0	-84.35994796275473	-1169690.0	
755715.0	54.50339669029674	128.0	128.0	168844.32983398438	5532691.0	-84.37833897809256	-1169945.0	
755415.0	54.481760201664	128.0	128.0	168845.30639648438	5532723.0	-84.40177850744469	-1170270.0	
755130.0	54.461205537462895	128.0	128.0	168846.28295898438	5532755.0	-84.38194505953135	-1169995.0	
754220.0	54.39557485527693	128.0	128.0	168847.25952148438	5532787.0	-84.4205301309264	-1170530.0	
753975.0	54.37790505622686	128.0	128.0	168848.23608398438	5532819.0	-84.44757574171732	-1170905.0	
753645.0	54.35410491873085	128.0	128.0	168849.21264648438	5532851.0	-84.47606378508375	-1171300.0	
754395.0	54.40819614031269	128.0	128.0	168850.18920898438	5532883.0	-84.46776979777454	-1171185.0	
754610.0	54.423702290499484	128.0	128.0	168851.16577148438	5532915.0	-84.4666879733429	-1171170.0	
753635.0	54.35338370244309	128.0	128.0	168852.14233398438	5532947.0	-84.48688202940012	-1171450.0	
755070.0	54.45687823973635	128.0	128.0	168853.11889648438	5532979.0	-84.59326143184441	-1172925.0	
754645.0	54.42622654750664	128.0	128.0	168854.09545898438	5533011.0	-84.70685299716628	-1174500.0	
754945.0	54.447863036139374	128.0	128.0	168855.07202148438	5533043.0	-84.81395361589833	-1175985.0	
755505.0	54.48825114825382	128.0	128.0	168856.04858398438	5533075.0	-84.83090219866064	-1176220.0	
755430.0	54.48284202609564	128.0	128.0	168857.02514648438	5533107.0	-84.82909915794124	-1176195.0	
754585.0	54.42189924978009	128.0	128.0	168858.00170898438	5533139.0	-84.7818594910931	-1175540.0	
755475.0	54.48608749939055	128.0	128.0	168858.97827148438	5533171.0	-84.65492542444771	-1173780.0	
754625.0	54.42478411493112	128.0	128.0	168859.95483398438	5533203.0	-84.5489066301473	-1172310.0	
755975.0	54.522148313778445	128.0	128.0	168860.93139648438	5533235.0	-84.40177850744469	-1170270.0	
755450.0	54.484284458671155	128.0	128.0	168861.90795898438	5533267.0	-84.31306890405047	-1169040.0	
755080.0	54.457599456024106	128.0	128.0	168862.88452148438	5533299.0	-84.32677201351787	-1169230.0	
754380.0	54.40711431588105	128.0	128.0	168863.86108398438	5533331.0	-84.33542660897096	-1169350.0	
755455.0	54.484645066815034	128.0	128.0	168864.83764648438	5533363.0	-84.34227816370466	-1169445.0	
755940.0	54.51962405677129	128.0	128.0	168865.81420898438	5533395.0	-84.35093275915776	-1169565.0	
754635.0	54.42550533121888	128.0	128.0	168866.79077148438	5533427.0	-84.34480242071182	-1169480.0	
756040.0	54.52683621964887	128.0	128.0	168867.76733398438	5533459.0	-84.35057215101388	-1169560.0	
754775.0	54.43560235924749	128.0	128.0	168868.74389648438	5533491.0	-84.39096026312832	-1170120.0	
755665.0	54.49979060885795	128.0	128.0	168869.72045898438	5533523.0	-84.39420573642323	-1170165.0	
755380.0	54.47923594465684	128.0	128.0	168870.69702148438	5533555.0	-84.41439979248045	-1170445.0	
754430.0	54.41072039731984	128.0	128.0	168871.67358398438	5533587.0	-84.42666046937234	-1170615.0	
754865.0	54.44209330583731	128.0	128.0	168872.65014648438	5533619.0	-84.49770027371649	-1171600.0	
756240.0	54.54126054540403	128.0	128.0	168873.62670898438	5533651.0	-84.62463434036188	-1173360.0	
755115.0	54.46012371303126	128.0	128.0	168874.60327148438	5533683.0	-84.72957131023065	-1174815.0	
755495.0	54.487529931966066	128.0	128.0	168875.57983398438	5533715.0	-84.79159591097783	-1175675.0	
755770.0	54.50736337987941	128.0	128.0	168876.55639648438	5533747.0	-84.79880807385541	-1175775.0	
754795.0	54.437044791823006	128.0	128.0	168877.53295898438	5533779.0	-84.78546557253189	-1175590.0	
755715.0	54.50339669029674	128.0	128.0	168878.50952148438	5533811.0	-84.68197103523863	-1174155.0	
755495.0	54.487529931966066	128.0	128.0	168879.48608398438	5533843.0	-84.56152791518306	-1172485.0	
755175.0	54.464451010757806	128.0	128.0	168880.46264648438	5533875.0	-84.43675749740095	-1170755.0	
755700.0	54.5023148658651	128.0	128.0	168881.43920898438	5533907.0	-84.29575971314428	-1168800.0	
755245.0	54.46949952477211	128.0	128.0	168882.41577148438	5533939.0	-84.2798929548136	-1168580.0	
756145.0	54.53440899067033	128.0	128.0	168883.39233398438	5533971.0	-84.28710511769118	-1168680.0	
755460.0	54.48500567495891	128.0	128.0	168884.36889648438	5534003.0	-84.29684153757592	-1168815.0	
755225.0	54.468057092196595	128.0	128.0	168885.34545898438	5534035.0	-84.32424775651072	-1169195.0	
755485.0	54.48680871567831	128.0	128.0	168886.32202148438	5534067.0	-84.33218113567605	-1169305.0	
755580.0	54.49366027041201	128.0	128.0	168887.29858398438	5534099.0	-84.32136289135968	-1169155.0	
754815.0	54.43848722439852	128.0	128.0	168888.27514648438	5534131.0	-84.34372059628018	-1169465.0	
755525.0	54.48969358082934	128.0	128.0	168889.25170898438	5534163.0	-84.37040559892722	-1169835.0	
755640.0	54.497987568138555	128.0	128.0	168890.22827148438	5534195.0	-84.3776177618048	-1169935.0	
754960.0	54.44894486057101	128.0	128.0	168891.20483398438	5534227.0	-84.39600877714263	-1170190.0	
754920.0	54.44605999541998	128.0	128.0	168892.18139648438	5534259.0	-84.43639688925707	-1170750.0	
755515.0	54.48897236454158	128.0	128.0	168893.15795898438	5534291.0	-84.54530054870851	-1172260.0	
755590.0	54.494381486699766	128.0	128.0	168894.13452148438	5534323.0	-84.65961333031814	-1173845.0	
755570.0	54.49293905412425	128.0	128.0	168895.11108398438	5534355.0	-84.7357016486766	-1174900.0	
754480.0	54.41432647875863	128.0	128.0	168896.08764648438	5534387.0	-84.77861401779819	-1175495.0	
753945.0	54.375741407363584	128.0	128.0	168897.06420898438	5534419.0	-84.77140185492061	-1175395.0	
754580.0	54.42153864163621	128.0	128.0	168898.04077148438	5534451.0	-84.7320955672378	-1174850.0	
753035.0	54.310110725177616	128.0	128.0	168899.01733398438	5534483.0	-84.60263724358526	-1173055.0	
754460.0	54.412884046183116	128.0	128.0	168899.99389648438	5534515.0	-84.48688202940012	-1171450.0	
754475.0	54.41396587061475	128.0	128.0	168900.97045898438	5534547.0	-84.34912971843836	-1169540.0	
754220.0	54.39557485527693	128.0	128.0	168901.94702148438	5534579.0	-84.28818694212282	-1168695.0	
754515.0	54.416850735765784	128.0	128.0	168902.92358398438	5534611.0	-84.27736869780645	-1168545.0	
755235.0	54.46877830848435	128.0	128.0	168903.90014648438	5534643.0	-84.30441430859737	-1168920.0	
755510.0	54.4886117563977	128.0	128.0	168904.87670898438	5534675.0	-84.31523255291374	-1169070.0	
754600.0	54.42298107421173	128.0	128.0	168905.85327148438	5534707.0	-84.33073870310054	-1169285.0	
754510.0	54.416490127621906	128.0	128.0	168906.82983398438	5534739.0	-84.31992045878417	-1169135.0	
754590.0	54.42225985792397	128.0	128.0	168907.80639648438	5534771.0	-84.31955985064029	-1169130.0	
755335.0	54.47599047136193	128.0	128.0	168908.78295898438	5534803.0	-84.34660546143121	-1169505.0	
755410.0	54.48139959352012	128.0	128.0	168909.75952148438	5534835.0	-84.3707662070711	-1169840.0	
755085.0	54.457960064167985	128.0	128.0	168910.73608398438	5534867.0	-84.37617532922928	-1169915.0	
755900.0	54.51673919162026	128.0	128.0	168911.71264648438	5534899.0	-84.39672999343038	-1170200.0	
755385.0	54.47959655280072	128.0	128.0	168912.68920898438	5534931.0	-84.47750621765927	-1171320.0	
755655.0	54.49906939257019	128.0	128.0	168913.66577148438	5534963.0	-84.6156191367649	-1173235.0	
755875.0	54.514936150900866	128.0	128.0	168914.64233398438	5534995.0	-84.680889210807	-1174140.0	
755550.0	54.491496621548734	128.0	128.0	168915.61889648438	5535027.0	-84.73534104053272	-1174895.0	
754995.0	54.45146911757816	128.0	128.0	168916.59545898438	5535059.0	-84.73425921610108	-1174880.0	
755530.0	54.49005418897322	128.0	128.0	168917.57202148438	5535091.0	-84.70541056459076	-1174480.0	
755545.0	54.491136013404855	128.0	128.0	168918.54858398438	5535123.0	-84.61958582634757	-1173290.0	
755540.0	54.490775405260976	128.0	128.0	168919.52514648438	5535155.0	-84.5128458157594	-1171810.0	
755025.0	54.45363276644144	128.0	128.0	168920.50170898438	5535187.0	-84.41656344134373	-1170475.0	
755945.0	54.51998466491517	128.0	128.0	168921.47827148438	5535219.0	-84.30008701087083	-1168860.0	
755485.0	54.48680871567831	128.0	128.0	168922.45483398438	5535251.0	-84.29179302356161	-1168745.0	
756040.0	54.52683621964887	128.0	128.0	168923.43139648438	5535283.0	-84.30369309230962	-1168910.0	
755615.0	54.49618452741916	128.0	128.0	168924.40795898438	5535315.0	-84.31451133662598	-1169060.0	
756255.0	54.542342369835666	128.0	128.0	168925.38452148438	5535347.0	-84.32172349950356	-1169160.0	
755885.0	54.51565736718862	128.0	128.0	168926.36108398438	5535379.0	-84.32136289135968	-1169155.0	
755810.0	54.51024824503044	128.0	128.0	168927.33764648438	5535411.0	-84.32929627052502	-1169265.0	
754975.0	54.45002668500265	128.0	128.0	168928.31420898438	5535443.0	-84.35742370574758	-1169655.0	
756165.0	54.535851423245845	128.0	128.0	168929.29077148438	5535475.0	-84.38050262695583	-1169975.0	
755650.0	54.49870878442631	128.0	128.0	168930.26733398438	5535507.0	-84.39492695271099	-1170175.0	
755500.0	54.487890540109944	128.0	128.0	168931.24389648438	5535539.0	-84.39672999343038	-1170200.0	
755675.0	54.50051182514571	128.0	128.0	168932.22045898438	5535571.0	-84.43964236255198	-1170795.0	
755855.0	54.51349371832535	128.0	128.0	168933.19702148438	5535603.0	-84.56188852332694	-1172490.0	
755635.0	54.497626959994676	128.0	128.0	168934.17358398438	5535635.0	-84.64338596384358	-1173620.0	
756085.0	54.53008169294378	128.0	128.0	168935.15014648438	5535667.0	-84.70504995644689	-1174475.0	
756295.0	54.5452272349867	128.0	128.0	168936.12670898438	5535699.0	-84.7115409030367	-1174565.0	
755910.0	54.51746040790802	128.0	128.0	168937.10327148438	5535731.0	-84.68629833296518	-1174215.0	
754925.0	54.44642060356386	128.0	128.0	168938.07983398438	5535763.0	-84.64879508600177	-1173695.0	
756020.0	54.525393787073355	128.0	128.0	168939.05639648438	5535795.0	-84.55647940116876	-1172415.0	
755075.0	54.45723884788023	128.0	128.0	168940.03295898438	5535827.0	-84.4580333778898	-1171050.0	
755680.0	54.50087243328959	128.0	128.0	168941.00952148438	5535859.0	-84.3451630288557	-1169485.0	
755540.0	54.490775405260976	128.0	128.0	168941.98608398438	5535891.0	-84.30946282261168	-1168990.0	
755045.0	54.45507519901695	128.0	128.0	168942.96264648438	5535923.0	-84.3296568786689	-1169270.0	
755540.0	54.490775405260976	128.0	128.0	168943.93920898438	5535955.0	-84.34949032658224	-1169545.0	
755395.0	54.48031776908849	128.0	128.0	168944.91577148438	5535987.0	-84.36860255820783	-1169810.0	
755575.0	54.49329966226813	128.0	128.0	168945.89233398438	5536019.0	-84.37473289665377	-1169895.0	
754950.0	54.44822364428325	128.0	128.0	168946.86889648438	5536051.0	-84.40249972373245	-1170280.0	
753455.0	54.34040180926345	128.0	128.0	168947.84545898438	5536083.0	-84.41115431918554	-1170400.0	
754135.0	54.389444516830984	128.0	128.0	168948.82202148438	5536115.0	-84.44685452542956	-1170895.0	
754005.0	54.38006870509013	128.0	128.0	168949.79858398438	5536147.0	-84.42774229380397	-1170630.0	
754855.0	54.44137208954955	128.0	128.0	168950.77514648438	5536179.0	-84.44000297069586	-1170800.0	
754535.0	54.4182931683413	128.0	128.0	168951.75170898438	5536211.0	-84.44180601141525	-1170825.0	
754900.0	54.44461756284446	128.0	128.0	168952.72827148438	5536243.0	-84.52258223564414	-1171945.0	
753720.0	54.35951404088903	128.0	128.0	168953.70483398438	5536275.0	-84.5849674445352	-1172810.0	
755050.0	54.45543580716083	128.0	128.0	168954.68139648438	5536307.0	-84.6037190680169	-1173070.0	
754455.0	54.41252343803924	128.0	128.0	168955.65795898438	5536339.0	-84.6260767729374	-1173380.0	
754925.0	54.44642060356386	128.0	128.0	168956.63452148438	5536371.0	-84.59722812142708	-1172980.0	
756035.0	54.52647561150499	128.0	128.0	168957.61108398438	5536403.0	-84.57523102465046	-1172675.0	
755395.0	54.48031776908849	128.0	128.0	168958.58764648438	5536435.0	-84.5420550754136	-1172215.0	
755960.0	54.52106648934681	128.0	128.0	168959.56420898438	5536467.0	-84.46596675705514	-1171160.0	
755080.0	54.457599456024106	128.0	128.0	168960.54077148438	5536499.0	-84.4443302684224	-1170860.0	
754970.0	54.44966607685877	128.0	128.0	168961.51733398438	5536531.0	-84.406827021459	-1170340.0	
755405.0	54.481038985376244	128.0	128.0	168962.49389648438	5536563.0	-84.4169240494876	-1170480.0	
755440.0	54.4835632423834	128.0	128.0	168963.47045898438	5536595.0	-84.4461333091418	-1170885.0	
755390.0	54.47995716094461	128.0	128.0	168964.44702148438	5536627.0	-84.42521803679682	-1170595.0	
755440.0	54.4835632423834	128.0	128.0	168965.42358398438	5536659.0	-84.42810290194785	-1170635.0	
755010.0	54.4525509420098	128.0	128.0	168966.40014648438	5536691.0	-84.45550912088265	-1171015.0	
755090.0	54.458320672311864	128.0	128.0	168967.37670898438	5536723.0	-84.43495445668155	-1170730.0	
755535.0	54.4904147971171	128.0	128.0	168968.35327148438	5536755.0	-84.46344250004799	-1171125.0	
756080.0	54.5297210847999	128.0	128.0	168969.32983398438	5536787.0	-84.47390013622048	-1171270.0	
754090.0	54.386199043536074	128.0	128.0	168970.30639648438	5536819.0	-84.49337297598994	-1171540.0	
755420.0	54.48212080980788	128.0	128.0	168971.28295898438	5536851.0	-84.47426074436436	-1171275.0	
755200.0	54.4662540514772	128.0	128.0	168972.25952148438	5536883.0	-84.51500946462268	-1171840.0	
755095.0	54.45868128045574	128.0	128.0	168973.23608398438	5536915.0	-84.57306737578719	-1172645.0	
755495.0	54.487529931966066	128.0	128.0	168974.21264648438	5536947.0	-84.60660393316793	-1173110.0	
756150.0	54.53476959881421	128.0	128.0	168975.18920898438	5536979.0	-84.62283129964248	-1173335.0	
755155.0	54.46300857818229	128.0	128.0	168976.16577148438	5537011.0	-84.61706156934042	-1173255.0	
755730.0	54.504478514728376	128.0	128.0	168977.14233398438	5537043.0	-84.59758872957096	-1172985.0	
754695.0	54.42983262894543	128.0	128.0	168978.11889648438	5537075.0	-84.57306737578719	-1172645.0	
755205.0	54.46661465962108	128.0	128.0	168979.09545898438	5537107.0	-84.51753372162983	-1171875.0	
755770.0	54.50736337987941	128.0	128.0	168980.07202148438	5537139.0	-84.4785880420909	-1171335.0	
755355.0	54.47743290393745	128.0	128.0	168981.04858398438	5537171.0	-84.43098776709888	-1170675.0	
755175.0	54.464451010757806	128.0	128.0	168982.02514648438	5537203.0	-84.43567567296931	-1170740.0	
755715.0	54.50339669029674	128.0	128.0	168983.00170898438	5537235.0	-84.43387263224992	-1170715.0	
755835.0	54.512051285749834	128.0	128.0	168983.97827148438	5537267.0	-84.44721513357344	-1170900.0	
755110.0	54.45976310488738	128.0	128.0	168984.95483398438	5537299.0	-84.4598364186092	-1171075.0	
754945.0	54.447863036139374	128.0	128.0	168985.93139648438	5537331.0	-84.43459384853767	-1170725.0	
755490.0	54.48716932382219	128.0	128.0	168986.90795898438	5537363.0	-84.44180601141525	-1170825.0	
754995.0	54.45146911757816	128.0	128.0	168987.88452148438	5537395.0	-84.45226364758774	-1170970.0	
755745.0	54.50556033916001	128.0	128.0	168988.86108398438	5537427.0	-84.46344250004799	-1171125.0	
755640.0	54.497987568138555	128.0	128.0	168989.83764648438	5537459.0	-84.4717364873572	-1171240.0	
754970.0	54.44966607685877	128.0	128.0	168990.81420898438	5537491.0	-84.48255473167357	-1171390.0	
755000.0	54.45182972572204	128.0	128.0	168991.79077148438	5537523.0	-84.50238817958692	-1171665.0	
755045.0	54.45507519901695	128.0	128.0	168992.76733398438	5537555.0	-84.5507096708667	-1172335.0	
756170.0	54.536212031389724	128.0	128.0	168993.74389648438	5537587.0	-84.5745098083627	-1172665.0	
755080.0	54.457599456024106	128.0	128.0	168994.72045898438	5537619.0	-84.61706156934042	-1173255.0	
755055.0	54.45579641530471	128.0	128.0	168995.69702148438	5537651.0	-84.6055221087363	-1173095.0	
754520.0	54.41721134390966	128.0	128.0	168996.67358398438	5537683.0	-84.62968285437618	-1173430.0	
753905.0	54.37285654221255	128.0	128.0	168997.65014648438	5537715.0	-84.60984940646284	-1173155.0	
754455.0	54.41252343803924	128.0	128.0	168998.62670898438	5537747.0	-84.56188852332694	-1172490.0	
754665.0	54.42766898008215	128.0	128.0	168999.60327148438	5537779.0	-84.5059942610257	-1171715.0	
755015.0	54.45291155015368	128.0	128.0	169000.57983398438	5537811.0	-84.45226364758774	-1170970.0	
755240.0	54.46913891662823	128.0	128.0	169001.55639648438	5537843.0	-84.42485742865294	-1170590.0	
754830.0	54.43956904883016	128.0	128.0	169002.53295898438	5537875.0	-84.43351202410604	-1170710.0	
754515.0	54.416850735765784	128.0	128.0	169003.50952148438	5537907.0	-84.43279080781828	-1170700.0	
755165.0	54.46372979447005	128.0	128.0	169004.48608398438	5537939.0	-84.4547879045949	-1171005.0	
754210.0	54.39485363898917	128.0	128.0	169005.46264648438	5537971.0	-84.4461333091418	-1170885.0	
754470.0	54.413605262470874	128.0	128.0	169006.43920898438	5538003.0	-84.4273816856601	-1170625.0	
755375.0	54.478875336512964	128.0	128.0	169007.41577148438	5538035.0	-84.42918472637949	-1170650.0	
755670.0	54.50015121700183	128.0	128.0	169008.39233398438	5538067.0	-84.44036357883974	-1170805.0	
754805.0	54.43776600811076	128.0	128.0	169009.36889648438	5538099.0	-84.4479363498612	-1170910.0	
756100.0	54.53116351737542	128.0	128.0	169010.34545898438	5538131.0	-84.45442729645102	-1171000.0	
755065.0	54.45651763159247	128.0	128.0	169011.32202148438	5538163.0	-84.47281831178884	-1171255.0	
755235.0	54.46877830848435	128.0	128.0	169012.29858398438	5538195.0	-84.52438527636353	-1171970.0	
755610.0	54.49582391927528	128.0	128.0	169013.27514648438	5538227.0	-84.53772777768705	-1172155.0	
754775.0	54.43560235924749	128.0	128.0	169014.25170898438	5538259.0	-84.57342798393107	-1172650.0	
756010.0	54.5246725707856	128.0	128.0	169015.22827148438	5538291.0	-84.58893413411786	-1172865.0	
754760.0	54.43452053481585	128.0	128.0	169016.20483398438	5538323.0	-84.59217960741277	-1172910.0	
755610.0	54.49582391927528	128.0	128.0	169017.18139648438	5538355.0	-84.5539551441616	-1172380.0	
755085.0	54.457960064167985	128.0	128.0	169018.15795898438	5538387.0	-84.52041858678086	-1171915.0	
755465.0	54.48536628310279	128.0	128.0	169019.13452148438	5538419.0	-84.46632736519902	-1171165.0	
755885.0	54.51565736718862	128.0	128.0	169020.11108398438	5538451.0	-84.42161195535803	-1170545.0	
756180.0	54.53693324767748	128.0	128.0	169021.08764648438	5538483.0	-84.37401168036601	-1169885.0	
755110.0	54.45976310488738	128.0	128.0	169022.06420898438	5538515.0	-84.38014201881195	-1169970.0	
754580.0	54.42153864163621	128.0	128.0	169023.04077148438	5538547.0	-84.41295735990494	-1170425.0	
755080.0	54.457599456024106	128.0	128.0	169024.01733398438	5538579.0	-84.39348452013547	-1170155.0	
755390.0	54.47995716094461	128.0	128.0	169024.99389648438	5538611.0	-84.3844693165385	-1170030.0	
755420.0	54.48212080980788	128.0	128.0	169025.97045898438	5538643.0	-84.37906019438032	-1169955.0	
754725.0	54.4319962778087	128.0	128.0	169026.94702148438	5538675.0	-84.39420573642323	-1170165.0	
755690.0	54.501593649577345	128.0	128.0	169027.92358398438	5538707.0	-84.39781181786202	-1170215.0	
755425.0	54.48248141795176	128.0	128.0	169028.90014648438	5538739.0	-84.39456634456711	-1170170.0	
756045.0	54.52719682779275	128.0	128.0	169029.87670898438	5538771.0	-84.39384512827935	-1170160.0	
755855.0	54.51349371832535	128.0	128.0	169030.85327148438	5538803.0	-84.39420573642323	-1170165.0	
756075.0	54.529360476656024	128.0	128.0	169031.82983398438	5538835.0	-84.42161195535803	-1170545.0	
755660.0	54.49943000071407	128.0	128.0	169032.80639648438	5538867.0	-84.46452432447963	-1171140.0	
755225.0	54.468057092196595	128.0	128.0	169033.78295898438	5538899.0	-84.49265175970218	-1171530.0	
755985.0	54.5228695300662	128.0	128.0	169034.75952148438	5538931.0	-84.52618831708293	-1171995.0	
755670.0	54.50015121700183	128.0	128.0	169035.73608398438	5538963.0	-84.5265489252268	-1172000.0	
755420.0	54.48212080980788	128.0	128.0	169036.71264648438	5538995.0	-84.51320642390328	-1171815.0	
755750.0	54.50592094730389	128.0	128.0	169037.68920898438	5539027.0	-84.4854395968246	-1171430.0	
755300.0	54.47346621435478	128.0	128.0	169038.66577148438	5539059.0	-84.41548161691209	-1170460.0	
755310.0	54.47418743064254	128.0	128.0	169039.64233398438	5539091.0	-84.36427526048128	-1169750.0	
755055.0	54.45579641530471	128.0	128.0	169040.61889648438	5539123.0	-84.3210022832158	-1169150.0	
756180.0	54.53693324767748	128.0	128.0	169041.59545898438	5539155.0	-84.29107180727385	-1168735.0	
754955.0	54.44858425242713	128.0	128.0	169042.57202148438	5539187.0	-84.30152944344634	-1168880.0	
756395.0	54.552439397864276	128.0	128.0	169043.54858398438	5539219.0	-84.30549613302901	-1168935.0	
755920.0	54.518181624195776	128.0	128.0	169044.52514648438	5539251.0	-84.31306890405047	-1169040.0	
755065.0	54.45651763159247	128.0	128.0	169045.50170898438	5539283.0	-84.31955985064029	-1169130.0	
755580.0	54.49366027041201	128.0	128.0	169046.47827148438	5539315.0	-84.33795086597812	-1169385.0	
754245.0	54.39737789599632	128.0	128.0	169047.45483398438	5539347.0	-84.3451630288557	-1169485.0	
754775.0	54.43560235924749	128.0	128.0	169048.43139648438	5539379.0	-84.36066917904249	-1169700.0	
754075.0	54.38511721910444	128.0	128.0	169049.40795898438	5539411.0	-84.36968438263946	-1169825.0	
755085.0	54.457960064167985	128.0	128.0	169050.38452148438	5539443.0	-84.35237519173327	-1169585.0	
755440.0	54.4835632423834	128.0	128.0	169051.36108398438	5539475.0	-84.35958735461085	-1169685.0	
755075.0	54.45723884788023	128.0	128.0	169052.33764648438	5539507.0	-84.39276330384772	-1170145.0	
755960.0	54.52106648934681	128.0	128.0	169053.31420898438	5539539.0	-84.45082121501223	-1170950.0	
754605.0	54.423341682355606	128.0	128.0	169054.29077148438	5539571.0	-84.47714560951539	-1171315.0	
755755.0	54.50628155544777	128.0	128.0	169055.26733398438	5539603.0	-84.49265175970218	-1171530.0	
756020.0	54.525393787073355	128.0	128.0	169056.24389648438	5539635.0	-84.48075169095418	-1171365.0	
754875.0	54.44281452212507	128.0	128.0	169057.22045898438	5539667.0	-84.48399716424909	-1171410.0	
756015.0	54.525033178929476	128.0	128.0	169058.19702148438	5539699.0	-84.41584222505597	-1170465.0	
756000.0	54.52395135449784	128.0	128.0	169059.17358398438	5539731.0	-84.38014201881195	-1169970.0	
754415.0	54.409638572888205	128.0	128.0	169060.15014648438	5539763.0	-84.33073870310054	-1169285.0	
756115.0	54.532245341807055	128.0	128.0	169061.12670898438	5539795.0	-84.26763227792172	-1168410.0	
755450.0	54.484284458671155	128.0	128.0	169062.10327148438	5539827.0	-84.28458086068403	-1168645.0	
755440.0	54.4835632423834	128.0	128.0	169063.07983398438	5539859.0	-84.2593382906125	-1168295.0	
755385.0	54.47959655280072	128.0	128.0	169064.05639648438	5539891.0	-84.27051714307275	-1168450.0	
755715.0	54.50339669029674	128.0	128.0	169065.03295898438	5539923.0	-84.2798929548136	-1168580.0	
755765.0	54.50700277173553	128.0	128.0	169066.00952148438	5539955.0	-84.25645342546147	-1168255.0	
755555.0	54.49185722969261	128.0	128.0	169066.98608398438	5539987.0	-84.26835349420948	-1168420.0	
754765.0	54.43488114295973	128.0	128.0	169067.96264648438	5540019.0	-84.27700808966257	-1168540.0	
756045.0	54.52719682779275	128.0	128.0	169068.93920898438	5540051.0	-84.27232018379215	-1168475.0	
755025.0	54.45363276644144	128.0	128.0	169069.91577148438	5540083.0	-84.30838099818004	-1168975.0	
755390.0	54.47995716094461	128.0	128.0	169070.89233398438	5540115.0	-84.28782633397894	-1168690.0	
755060.0	54.45615702344859	128.0	128.0	169071.86889648438	5540147.0	-84.32172349950356	-1169160.0	
755050.0	54.45543580716083	128.0	128.0	169072.84545898438	5540179.0	-84.37653593737316	-1169920.0	
755605.0	54.4954633111314	128.0	128.0	169073.82202148438	5540211.0	-84.40069668301305	-1170255.0	
754960.0	54.44894486057101	128.0	128.0	169074.79858398438	5540243.0	-84.43675749740095	-1170755.0	
755355.0	54.47743290393745	128.0	128.0	169075.77514648438	5540275.0	-84.40394215630796	-1170300.0	
755910.0	54.51746040790802	128.0	128.0	169076.75170898438	5540307.0	-84.40646641331512	-1170335.0	
755020.0	54.45327215829756	128.0	128.0	169077.72827148438	5540339.0	-84.39528756085487	-1170180.0	
755210.0	54.46697526776496	128.0	128.0	169078.70483398438	5540371.0	-84.3314599193883	-1169295.0	
754585.0	54.42189924978009	128.0	128.0	169079.68139648438	5540403.0	-84.31739620177702	-1169100.0	
755595.0	54.494742094843645	128.0	128.0	169080.65795898438	5540435.0	-84.23445632868486	-1167950.0	
756110.0	54.531884733663176	128.0	128.0	169081.63452148438	5540467.0	-84.21426227262764	-1167670.0	
755085.0	54.457960064167985	128.0	128.0	169082.61108398438	5540499.0	-84.22544112508788	-1167825.0	
755890.0	54.5160179753325	128.0	128.0	169083.58764648438	5540531.0	-84.2337351123971	-1167940.0	
755560.0	54.49221783783649	128.0	128.0	169084.56420898438	5540563.0	-84.22760477395116	-1167855.0	
755390.0	54.47995716094461	128.0	128.0	169085.54077148438	5540595.0	-84.21462288077151	-1167675.0	
755710.0	54.50303608215286	128.0	128.0	169086.51733398438	5540627.0	-84.21390166448376	-1167665.0	
755775.0	54.50772398802329	128.0	128.0	169087.49389648438	5540659.0	-84.2149834889154	-1167680.0	
756000.0	54.52395135449784	128.0	128.0	169088.47045898438	5540691.0	-84.26330498019517	-1168350.0	
754695.0	54.42983262894543	128.0	128.0	169089.44702148438	5540723.0	-84.26150193947578	-1168325.0	
755715.0	54.50339669029674	128.0	128.0	169090.42358398438	5540755.0	-84.26546862905845	-1168380.0	
755555.0	54.49185722969261	128.0	128.0	169091.40014648438	5540787.0	-84.25645342546147	-1168255.0	
756285.0	54.54450601869894	128.0	128.0	169092.37670898438	5540819.0	-84.31342951219435	-1169045.0	
755695.0	54.50195425772122	128.0	128.0	169093.35327148438	5540851.0	-84.35994796275473	-1169690.0	
755890.0	54.5160179753325	128.0	128.0	169094.32983398438	5540883.0	-84.41115431918554	-1170400.0	
755180.0	54.464811618901685	128.0	128.0	169095.30639648438	5540915.0	-84.41151492732942	-1170405.0	
754575.0	54.42117803349233	128.0	128.0	169096.28295898438	5540947.0	-84.43459384853767	-1170725.0	
754930.0	54.44678121170774	128.0	128.0	169097.25952148438	5540979.0	-84.42089073907027	-1170535.0	
753355.0	54.33318964638587	128.0	128.0	169098.23608398438	5541011.0	-84.36607830120067	-1169775.0	
754215.0	54.39521424713305	128.0	128.0	169099.21264648438	5541043.0	-84.28926876655446	-1168710.0	
755245.0	54.46949952477211	128.0	128.0	169100.18920898438	5541075.0	-84.22219565179297	-1167780.0	
754385.0	54.40747492402493	128.0	128.0	169101.16577148438	5541107.0	-84.1807257152469	-1167205.0	
755625.0	54.49690574370692	128.0	128.0	169102.14233398438	5541139.0	-84.17675902566423	-1167150.0	
755060.0	54.45615702344859	128.0	128.0	169103.11889648438	5541171.0	-84.18541362111732	-1167270.0	
754585.0	54.42189924978009	128.0	128.0	169104.09545898438	5541203.0	-84.19046213513163	-1167340.0	
755645.0	54.498348176282434	128.0	128.0	169105.07202148438	5541235.0	-84.1839711885418	-1167250.0	
755690.0	54.501593649577345	128.0	128.0	169106.04858398438	5541267.0	-84.17171051164992	-1167080.0	
755455.0	54.484645066815034	128.0	128.0	169107.02514648438	5541299.0	-84.1839711885418	-1167250.0	
755565.0	54.49257844598037	128.0	128.0	169108.00170898438	5541331.0	-84.18974091884387	-1167330.0	
755735.0	54.504839122872255	128.0	128.0	169108.97827148438	5541363.0	-84.20164098759187	-1167495.0	
756330.0	54.54775149199385	128.0	128.0	169109.95483398438	5541395.0	-84.19911673058472	-1167460.0	
755300.0	54.47346621435478	128.0	128.0	169110.93139648438	5541427.0	-84.2113774074766	-1167630.0	
755410.0	54.48139959352012	128.0	128.0	169111.90795898438	5541459.0	-84.23842301826753	-1168005.0	
755340.0	54.47635107950581	128.0	128.0	169112.88452148438	5541491.0	-84.29575971314428	-1168800.0	
755790.0	54.50880581245492	128.0	128.0	169113.86108398438	5541523.0	-84.32677201351787	-1169230.0	
756100.0	54.53116351737542	128.0	128.0	169114.83764648438	5541555.0	-84.34480242071182	-1169480.0	
755580.0	54.49366027041201	128.0	128.0	169115.81420898438	5541587.0	-84.34227816370466	-1169445.0	
755370.0	54.478514728369085	128.0	128.0	169116.79077148438	5541619.0	-84.31883863435253	-1169120.0	
755935.0	54.51926344862741	128.0	128.0	169117.76733398438	5541651.0	-84.28422025254015	-1168640.0	
756300.0	54.545587843130576	128.0	128.0	169118.74389648438	5541683.0	-84.21750774592255	-1167715.0	
755340.0	54.47635107950581	128.0	128.0	169119.72045898438	5541715.0	-84.16233469990907	-1166950.0	
755805.0	54.50988763688656	128.0	128.0	169120.69702148438	5541747.0	-84.10391618060068	-1166140.0	
756565.0	54.56470007475616	128.0	128.0	169121.67358398438	5541779.0	-84.08552516526285	-1165885.0	
755825.0	54.511330069462076	128.0	128.0	169122.65014648438	5541811.0	-84.09598280143534	-1166030.0	
756575.0	54.56542129104392	128.0	128.0	169123.62670898438	5541843.0	-84.09778584215474	-1166055.0	
756100.0	54.53116351737542	128.0	128.0	169124.60327148438	5541875.0	-84.09886766658637	-1166070.0	
755420.0	54.48212080980788	128.0	128.0	169125.57983398438	5541907.0	-84.10031009916189	-1166090.0	
755610.0	54.49582391927528	128.0	128.0	169126.55639648438	5541939.0	-84.0848039489751	-1165875.0	
755495.0	54.487529931966066	128.0	128.0	169127.53295898438	5541971.0	-84.08408273268734	-1165865.0	
756680.0	54.572994062065376	128.0	128.0	169128.50952148438	5542003.0	-84.09742523401086	-1166050.0	
755405.0	54.481038985376244	128.0	128.0	169129.48608398438	5542035.0	-84.10788287018335	-1166195.0	
756450.0	54.556406087446945	128.0	128.0	169130.46264648438	5542067.0	-84.10680104575171	-1166180.0	
756020.0	54.525393787073355	128.0	128.0	169131.43920898438	5542099.0	-84.10716165389559	-1166185.0	
755825.0	54.511330069462076	128.0	128.0	169132.41577148438	5542131.0	-84.16630138949174	-1167005.0	
756270.0	54.5434241942673	128.0	128.0	169133.39233398438	5542163.0	-84.20596828531842	-1167555.0	
755330.0	54.47562986321805	128.0	128.0	169134.36889648438	5542195.0	-84.2405866671308	-1168035.0	
755940.0	54.51962405677129	128.0	128.0	169135.34545898438	5542227.0	-84.24311092413795	-1168070.0	
755590.0	54.494381486699766	128.0	128.0	169136.32202148438	5542259.0	-84.23121085538995	-1167905.0	
755530.0	54.49005418897322	128.0	128.0	169137.29858398438	5542291.0	-84.21173801562048	-1167635.0	
755895.0	54.51637858347638	128.0	128.0	169138.27514648438	5542323.0	-84.14863159044167	-1166760.0	
756445.0	54.556045479303066	128.0	128.0	169139.25170898438	5542355.0	-84.08913124670164	-1165935.0	
756405.0	54.553160614152034	128.0	128.0	169140.22827148438	5542387.0	-84.03107333553712	-1165130.0	
755200.0	54.4662540514772	128.0	128.0	169141.20483398438	5542419.0	-83.98996400713492	-1164560.0	
755685.0	54.501233041433466	128.0	128.0	169142.18139648438	5542451.0	-83.97337603251648	-1164330.0	
755945.0	54.51998466491517	128.0	128.0	169143.15795898438	5542483.0	-83.98780035827164	-1164530.0	
754910.0	54.44533877913222	128.0	128.0	169144.13452148438	5542515.0	-83.99140643971043	-1164580.0	
755560.0	54.49221783783649	128.0	128.0	169145.11108398438	5542547.0	-83.97734272209915	-1164385.0	
754430.0	54.41072039731984	128.0	128.0	169146.08764648438	5542579.0	-84.0004216433074	-1164705.0	
754040.0	54.382592962097284	128.0	128.0	169147.06420898438	5542611.0	-83.99176704785431	-1164585.0	
753790.0	54.36456255490334	128.0	128.0	169148.04077148438	5542643.0	-83.99465191300534	-1164625.0	
753850.0	54.368889852629884	128.0	128.0	169149.01733398438	5542675.0	-84.00006103516353	-1164700.0	
755285.0	54.47238438992314	128.0	128.0	169149.99389648438	5542707.0	-83.96904873478994	-1164270.0	
755225.0	54.468057092196595	128.0	128.0	169150.97045898438	5542739.0	-84.0004216433074	-1164705.0	
755380.0	54.47923594465684	128.0	128.0	169151.94702148438	5542771.0	-84.01340353648705	-1164885.0	
755110.0	54.45976310488738	128.0	128.0	169152.92358398438	5542803.0	-84.09345854442819	-1165995.0	
754850.0	54.441011481405674	128.0	128.0	169153.90014648438	5542835.0	-84.12519206108954	-1166435.0	
755625.0	54.49690574370692	128.0	128.0	169154.87670898438	5542867.0	-84.11870111449971	-1166345.0	
755490.0	54.48716932382219	128.0	128.0	169155.85327148438	5542899.0	-84.11834050635584	-1166340.0	
755750.0	54.50592094730389	128.0	128.0	169156.82983398438	5542931.0	-84.07650996166586	-1165760.0	
755770.0	54.50736337987941	128.0	128.0	169157.80639648438	5542963.0	-84.05054617530658	-1165400.0	
755240.0	54.46913891662823	128.0	128.0	169158.78295898438	5542995.0	-83.99429130486146	-1164620.0	
756185.0	54.53729385582136	128.0	128.0	169159.75952148438	5543027.0	-83.93082427153877	-1163740.0	
756125.0	54.53296655809481	128.0	128.0	169160.73608398438	5543059.0	-83.86375115677728	-1162810.0	
756380.0	54.55135757343264	128.0	128.0	169161.71264648438	5543091.0	-83.85906325090686	-1162745.0	
754600.0	54.42298107421173	128.0	128.0	169162.68920898438	5543123.0	-83.8770936581008	-1162995.0	
755400.0	54.480678377232366	128.0	128.0	169163.66577148438	5543155.0	-83.86879967079159	-1162880.0	
755915.0	54.5178210160519	128.0	128.0	169164.64233398438	5543187.0	-83.86302994048953	-1162800.0	
756200.0	54.538375680253	128.0	128.0	169165.61889648438	5543219.0	-83.86447237306504	-1162820.0	
755565.0	54.49257844598037	128.0	128.0	169166.59545898438	5543251.0	-83.86122689977013	-1162775.0	
756205.0	54.538736288396876	128.0	128.0	169167.57202148438	5543283.0	-83.86266933234565	-1162795.0	
756175.0	54.5365726395336	128.0	128.0	169168.54858398438	5543315.0	-83.89187859199984	-1163200.0	
756780.0	54.580206224942955	128.0	128.0	169169.52514648438	5543347.0	-83.86879967079159	-1162880.0	
755590.0	54.494381486699766	128.0	128.0	169170.50170898438	5543379.0	-83.88430582097838	-1163095.0	
755735.0	54.504839122872255	128.0	128.0	169171.47827148438	5543411.0	-83.89007555128045	-1163175.0	
755690.0	54.501593649577345	128.0	128.0	169172.45483398438	5543443.0	-83.96327900448787	-1164190.0	
755580.0	54.49366027041201	128.0	128.0	169173.43139648438	5543475.0	-83.98563670940837	-1164500.0	
756160.0	54.535490815101966	128.0	128.0	169174.40795898438	5543507.0	-84.01340353648705	-1164885.0	
756080.0	54.5297210847999	128.0	128.0	169175.38452148438	5543539.0	-84.01628840163808	-1164925.0	
756325.0	54.54739088384997	128.0	128.0	169176.36108398438	5543571.0	-83.98960339899104	-1164555.0	
756355.0	54.549554532713245	128.0	128.0	169177.33764648438	5543603.0	-83.96688508592666	-1164240.0	
756800.0	54.58164865751847	128.0	128.0	169178.31420898438	5543635.0	-83.90233622817233	-1163345.0	
755655.0	54.49906939257019	128.0	128.0	169179.29077148438	5543667.0	-83.85545716946807	-1162695.0	
756115.0	54.532245341807055	128.0	128.0	169180.26733398438	5543699.0	-83.80136594788623	-1161945.0	
756220.0	54.53981811282851	128.0	128.0	169181.24389648438	5543731.0	-83.76278087649118	-1161410.0	
755635.0	54.497626959994676	128.0	128.0	169182.22045898438	5543763.0	-83.76205966020342	-1161400.0	
756880.0	54.587418387820534	128.0	128.0	169183.19702148438	5543795.0	-83.75124141588705	-1161250.0	
756315.0	54.54666966756221	128.0	128.0	169184.17358398438	5543827.0	-83.75340506475032	-1161280.0	
756760.0	54.57876379236744	128.0	128.0	169185.15014648438	5543859.0	-83.75015959145541	-1161235.0	
756270.0	54.5434241942673	128.0	128.0	169186.12670898438	5543891.0	-83.74619290187275	-1161180.0	
755685.0	54.501233041433466	128.0	128.0	169187.10327148438	5543923.0	-83.74402925300947	-1161150.0	
756590.0	54.566503115475555	128.0	128.0	169188.07983398438	5543955.0	-83.76133844391566	-1161390.0	
755485.0	54.48680871567831	128.0	128.0	169189.05639648438	5543987.0	-83.76133844391566	-1161390.0	
756830.0	54.583812306381745	128.0	128.0	169190.03295898438	5544019.0	-83.74799594259214	-1161205.0	
756360.0	54.549915140857124	128.0	128.0	169191.00952148438	5544051.0	-83.75196263217481	-1161260.0	
755835.0	54.512051285749834	128.0	128.0	169191.98608398438	5544083.0	-83.78261432440452	-1161685.0	
756770.0	54.5794850086552	128.0	128.0	169192.96264648438	5544115.0	-83.84860561473437	-1162600.0	
756345.0	54.54883331642549	128.0	128.0	169193.93920898438	5544147.0	-83.87997852325184	-1163035.0	
756720.0	54.57587892721641	128.0	128.0	169194.91577148438	5544179.0	-83.8806997395396	-1163045.0	
755020.0	54.45327215829756	128.0	128.0	169195.89233398438	5544211.0	-83.88719068612941	-1163135.0	
754455.0	54.41252343803924	128.0	128.0	169196.86889648438	5544243.0	-83.85726021018746	-1162720.0	
754855.0	54.44137208954955	128.0	128.0	169197.84545898438	5544275.0	-83.81434784106587	-1162125.0	
754440.0	54.4114416136076	128.0	128.0	169198.82202148438	5544307.0	-83.74907776702378	-1161220.0	
755450.0	54.484284458671155	128.0	128.0	169199.79858398438	5544339.0	-83.67226823237756	-1160155.0	
755140.0	54.46192675375065	128.0	128.0	169200.77514648438	5544371.0	-83.61384971306917	-1159345.0	
754990.0	54.451108509434285	128.0	128.0	169201.75170898438	5544403.0	-83.61781640265184	-1159400.0	
754875.0	54.44281452212507	128.0	128.0	169202.72827148438	5544435.0	-83.60699815833547	-1159250.0	
755580.0	54.49366027041201	128.0	128.0	169203.70483398438	5544467.0	-83.60050721174565	-1159160.0	
755260.0	54.47058134920375	128.0	128.0	169204.68139648438	5544499.0	-83.60771937462323	-1159260.0	
755400.0	54.480678377232366	128.0	128.0	169205.65795898438	5544531.0	-83.58391923712722	-1158930.0	
755665.0	54.49979060885795	128.0	128.0	169206.63452148438	5544563.0	-83.57093734394758	-1158750.0	
757025.0	54.597876023993024	128.0	128.0	169207.61108398438	5544595.0	-83.57021612765982	-1158740.0	
756440.0	54.55568487115919	128.0	128.0	169208.58764648438	5544627.0	-83.57959193940067	-1158870.0	
756115.0	54.532245341807055	128.0	128.0	169209.56420898438	5544659.0	-83.59762234659462	-1159120.0	
756305.0	54.545948451274455	128.0	128.0	169210.54077148438	5544691.0	-83.59041018371704	-1159020.0	
756485.0	54.5589303444541	128.0	128.0	169211.51733398438	5544723.0	-83.59365565701195	-1159065.0	
756355.0	54.549554532713245	128.0	128.0	169212.49389648438	5544755.0	-83.64918931116931	-1159835.0	
756615.0	54.56830615619495	128.0	128.0	169213.47045898438	5544787.0	-83.69462593729806	-1160465.0	
756660.0	54.57155162948986	128.0	128.0	169214.44702148438	5544819.0	-83.69606836987357	-1160485.0	
755870.0	54.51457554275699	128.0	128.0	169215.42358398438	5544851.0	-83.69678958616133	-1160495.0	
755970.0	54.521787705634566	128.0	128.0	169216.40014648438	5544883.0	-83.67911978711126	-1160250.0	
756680.0	54.572994062065376	128.0	128.0	169217.37670898438	5544915.0	-83.63981349942846	-1159705.0	
756685.0	54.573354670209255	128.0	128.0	169218.35327148438	5544947.0	-83.56156153220672	-1158620.0	
756730.0	54.576600143504166	128.0	128.0	169219.32983398438	5544979.0	-83.50963395948816	-1157900.0	
756265.0	54.543063586123424	128.0	128.0	169220.30639648438	5545011.0	-83.45842760305734	-1157190.0	
756740.0	54.577321359791924	128.0	128.0	169221.28295898438	5545043.0	-83.41371219321636	-1156570.0	
756065.0	54.528639260368266	128.0	128.0	169222.25952148438	5545075.0	-83.40181212446835	-1156405.0	
756960.0	54.5931881181226	128.0	128.0	169223.23608398438	5545107.0	-83.41407280136023	-1156575.0	
756110.0	54.531884733663176	128.0	128.0	169224.21264648438	5545139.0	-83.40181212446835	-1156405.0	
756405.0	54.553160614152034	128.0	128.0	169225.18920898438	5545171.0	-83.39496056973465	-1156310.0	
756890.0	54.58813960410829	128.0	128.0	169226.16577148438	5545203.0	-83.3769301625407	-1156060.0	
756020.0	54.525393787073355	128.0	128.0	169227.14233398438	5545235.0	-83.37584833810907	-1156045.0	
756310.0	54.546309059418334	128.0	128.0	169228.11889648438	5545267.0	-83.39892725931732	-1156365.0	
756120.0	54.532605949950934	128.0	128.0	169229.09545898438	5545299.0	-83.40505759776326	-1156450.0	
756220.0	54.53981811282851	128.0	128.0	169230.07202148438	5545331.0	-83.38702719056931	-1156200.0	
756855.0	54.58561534710114	128.0	128.0	169231.04858398438	5545363.0	-83.38233928469889	-1156135.0	
756905.0	54.58922142853993	128.0	128.0	169232.02514648438	5545395.0	-83.42272739681333	-1156695.0	
756790.0	54.58092744123071	128.0	128.0	169233.00170898438	5545427.0	-83.47393375324414	-1157405.0	
756130.0	54.53332716623869	128.0	128.0	169233.97827148438	5545459.0	-83.50278240475446	-1157805.0	
756895.0	54.58850021225217	128.0	128.0	169234.95483398438	5545491.0	-83.5020611884667	-1157795.0	
757070.0	54.601121497287934	128.0	128.0	169235.93139648438	5545523.0	-83.48547321384827	-1157565.0	
756025.0	54.525754395217234	128.0	128.0	169236.90795898438	5545555.0	-83.46996706366147	-1157350.0	
756755.0	54.57840318422356	128.0	128.0	169237.88452148438	5545587.0	-83.40217273261223	-1156410.0	
756845.0	54.58489413081338	128.0	128.0	169238.86108398438	5545619.0	-83.34014813186505	-1155550.0	
757040.0	54.59895784842466	128.0	128.0	169239.83764648438	5545651.0	-83.2604537320678	-1154445.0	
756535.0	54.56253642589289	128.0	128.0	169240.81420898438	5545683.0	-83.1969866987451	-1153565.0	
756900.0	54.58886082039605	128.0	128.0	169241.79077148438	5545715.0	-83.19662609060123	-1153560.0	
756570.0	54.56506068290004	128.0	128.0	169242.76733398438	5545747.0	-83.20672311862984	-1153700.0	
756330.0	54.54775149199385	128.0	128.0	169243.74389648438	5545779.0	-83.21537771408293	-1153820.0	
756875.0	54.587057779676655	128.0	128.0	169244.72045898438	5545811.0	-83.18833210329201	-1153445.0	
756860.0	54.58597595524502	128.0	128.0	169245.69702148438	5545843.0	-83.19410183359408	-1153525.0	
754895.0	54.444256954700585	128.0	128.0	169246.67358398438	5545875.0	-83.1901351440114	-1153470.0	
756180.0	54.53693324767748	128.0	128.0	169247.65014648438	5545907.0	-83.17679264268789	-1153285.0	
755225.0	54.468057092196595	128.0	128.0	169248.62670898438	5545939.0	-83.1850866299971	-1153400.0	
756155.0	54.53513020695809	128.0	128.0	169249.60327148438	5545971.0	-83.17246534496134	-1153225.0	
756690.0	54.573715278353134	128.0	128.0	169250.57983398438	5546003.0	-83.16741683094703	-1153155.0	
756430.0	54.55496365487143	128.0	128.0	169251.55639648438	5546035.0	-83.1832835892777	-1153375.0	
755635.0	54.497626959994676	128.0	128.0	169252.53295898438	5546067.0	-83.26189616464332	-1154465.0	
756850.0	54.58525473895726	128.0	128.0	169253.50952148438	5546099.0	-83.26694467865762	-1154535.0	
756020.0	54.525393787073355	128.0	128.0	169254.48608398438	5546131.0	-83.28605691028321	-1154800.0	
756695.0	54.57407588649701	128.0	128.0	169255.46264648438	5546163.0	-83.28064778812502	-1154725.0	
756970.0	54.593909334410355	128.0	128.0	169256.43920898438	5546195.0	-83.24278393301773	-1154200.0	
756565.0	54.56470007475616	128.0	128.0	169257.41577148438	5546227.0	-83.19806852317674	-1153580.0	
756735.0	54.576960751648045	128.0	128.0	169258.39233398438	5546259.0	-83.13315905727853	-1152680.0	
757150.0	54.60689122759	128.0	128.0	169259.36889648438	5546291.0	-83.04372823759654	-1151440.0	
756870.0	54.58669717153278	128.0	128.0	169260.34545898438	5546323.0	-82.98062181241772	-1150565.0	
756940.0	54.59174568554708	128.0	128.0	169261.32202148438	5546355.0	-82.94744586318086	-1150105.0	
756635.0	54.569748588770466	128.0	128.0	169262.29858398438	5546387.0	-82.96187018893602	-1150305.0	
757790.0	54.6530490700065	128.0	128.0	169263.27514648438	5546419.0	-82.93843065958389	-1149980.0	
756870.0	54.58669717153278	128.0	128.0	169264.25170898438	5546451.0	-82.93266092928182	-1149900.0	
756850.0	54.58525473895726	128.0	128.0	169265.22827148438	5546483.0	-82.91895781981442	-1149710.0	
757495.0	54.631773189517645	128.0	128.0	169266.20483398438	5546515.0	-82.8987637637572	-1149430.0	
757740.0	54.64944298856771	128.0	128.0	169267.18139648438	5546547.0	-82.88974856016023	-1149305.0	
756645.0	54.570469805058224	128.0	128.0	169268.15795898438	5546579.0	-82.91066383250521	-1149595.0	
757385.0	54.62383981035231	128.0	128.0	169269.13452148438	5546611.0	-82.9074183592103	-1149550.0	
758060.0	54.672521909775966	128.0	128.0	169270.11108398438	5546643.0	-82.89083038459187	-1149320.0	
757140.0	54.60617001130224	128.0	128.0	169271.08764648438	5546675.0	-82.88109396470713	-1149185.0	
757155.0	54.60725183573388	128.0	128.0	169272.06420898438	5546707.0	-82.914269913944	-1149645.0	
757580.0	54.63790352796359	128.0	128.0	169273.04077148438	5546739.0	-82.96259140522378	-1150315.0	
757265.0	54.61518521489921	128.0	128.0	169274.01733398438	5546771.0	-82.98639154271979	-1150645.0	
758340.0	54.69271596583319	128.0	128.0	169274.99389648438	5546803.0	-82.96763991923808	-1150385.0	
757095.0	54.60292453800733	128.0	128.0	169275.97045898438	5546835.0	-82.93374275371346	-1149915.0	
757735.0	54.649082380423835	128.0	128.0	169276.94702148438	5546867.0	-82.91463052208788	-1149650.0	
757660.0	54.64367325826565	128.0	128.0	169277.92358398438	5546899.0	-82.83493612229063	-1148545.0	
757140.0	54.60617001130224	128.0	128.0	169278.90014648438	5546931.0	-82.7635357098026	-1147555.0	
757625.0	54.6411490012585	128.0	128.0	169279.87670898438	5546963.0	-82.68384131000535	-1146450.0	
757765.0	54.65124602928711	128.0	128.0	169280.85327148438	5546995.0	-82.59404988217949	-1145205.0	
757995.0	54.66783400390554	128.0	128.0	169281.82983398438	5547027.0	-82.59008319259682	-1145150.0	
757325.0	54.61951251262576	128.0	128.0	169282.80639648438	5547059.0	-82.5853952867264	-1145085.0	
757955.0	54.66494913875451	128.0	128.0	169283.78295898438	5547091.0	-82.57277400169063	-1144910.0	
757415.0	54.62600345921558	128.0	128.0	169284.75952148438	5547123.0	-82.5680860958202	-1144845.0	
757200.0	54.61049730902879	128.0	128.0	169285.73608398438	5547155.0	-82.53851622802213	-1144435.0	
757030.0	54.5982366321369	128.0	128.0	169286.71264648438	5547187.0	-82.51219183351897	-1144070.0	
757225.0	54.61230034974818	128.0	128.0	169287.68920898438	5547219.0	-82.50966757651182	-1144035.0	
757885.0	54.6599006247402	128.0	128.0	169288.66577148438	5547251.0	-82.51904338825267	-1144165.0	
757755.0	54.65052481299935	128.0	128.0	169289.64233398438	5547283.0	-82.48442500644029	-1143685.0	
758065.0	54.672882517919845	128.0	128.0	169290.61889648438	5547315.0	-82.47324615398004	-1143530.0	
758085.0	54.67432495049536	128.0	128.0	169291.59545898438	5547347.0	-82.47180372140453	-1143510.0	
757880.0	54.659540016596324	128.0	128.0	169292.57202148438	5547379.0	-82.51868278010879	-1144160.0	
757660.0	54.64367325826565	128.0	128.0	169293.54858398438	5547411.0	-82.52589494298637	-1144260.0	
757485.0	54.63105197322989	128.0	128.0	169294.52514648438	5547443.0	-82.54212230946092	-1144485.0	
756595.0	54.566863723619434	128.0	128.0	169295.50170898438	5547475.0	-82.5219282534037	-1144205.0	
756795.0	54.58128804937459	128.0	128.0	169296.47827148438	5547507.0	-82.47649162727495	-1143575.0	
756185.0	54.53729385582136	128.0	128.0	169297.45483398438	5547539.0	-82.42312162198087	-1142835.0	
756690.0	54.573715278353134	128.0	128.0	169298.43139648438	5547571.0	-82.32215134169476	-1141435.0	
756665.0	54.57191223763374	128.0	128.0	169299.40795898438	5547603.0	-82.23560538716382	-1140235.0	
757355.0	54.621676161489034	128.0	128.0	169300.38452148438	5547635.0	-82.15915646066148	-1139175.0	
757325.0	54.61951251262576	128.0	128.0	169301.36108398438	5547667.0	-82.1090319286623	-1138480.0	
757690.0	54.645836907128924	128.0	128.0	169302.33764648438	5547699.0	-82.0917227377561	-1138240.0	
756690.0	54.573715278353134	128.0	128.0	169303.31420898438	5547731.0	-82.08595300745404	-1138160.0	
757300.0	54.617709471906366	128.0	128.0	169304.29077148438	5547763.0	-82.06539834325294	-1137875.0	
756940.0	54.59174568554708	128.0	128.0	169305.26733398438	5547795.0	-82.0369102998865	-1137480.0	
757835.0	54.656294543301414	128.0	128.0	169306.24389648438	5547827.0	-82.00878286466394	-1137090.0	
757835.0	54.656294543301414	128.0	128.0	169307.22045898438	5547859.0	-81.98498272716793	-1136760.0	
758365.0	54.69451900655258	128.0	128.0	169308.19702148438	5547891.0	-81.98967063303836	-1136825.0	
758100.0	54.675406774927	128.0	128.0	169309.17358398438	5547923.0	-81.9665917118301	-1136505.0	
757380.0	54.62347920220843	128.0	128.0	169310.15014648438	5547955.0	-81.94531583134125	-1136210.0	
758065.0	54.672882517919845	128.0	128.0	169311.12670898438	5547987.0	-81.91827022055033	-1135835.0	
757900.0	54.66098244917184	128.0	128.0	169312.10327148438	5548019.0	-81.9665917118301	-1136505.0	
757730.0	54.648721772279956	128.0	128.0	169313.07983398438	5548051.0	-81.9976040122037	-1136935.0	
757265.0	54.61518521489921	128.0	128.0	169314.05639648438	5548083.0	-82.00986468909558	-1137105.0	
758615.0	54.71254941374653	128.0	128.0	169315.03295898438	5548115.0	-81.99327671447715	-1136875.0	
757910.0	54.6617036654596	128.0	128.0	169316.00952148438	5548147.0	-81.9478400883484	-1136245.0	
757680.0	54.645115690841166	128.0	128.0	169316.98608398438	5548179.0	-81.91105805767275	-1135735.0	
757320.0	54.61915190448188	128.0	128.0	169317.96264648438	5548211.0	-81.82162723799077	-1134495.0	
757760.0	54.65088542114323	128.0	128.0	169318.93920898438	5548243.0	-81.74517831148843	-1133435.0	
758090.0	54.67468555863924	128.0	128.0	169319.91577148438	5548275.0	-81.66800816869834	-1132365.0	
757720.0	54.6480005559922	128.0	128.0	169320.89233398438	5548307.0	-81.58903498518885	-1131270.0	
757415.0	54.62600345921558	128.0	128.0	169321.86889648438	5548339.0	-81.58110160602351	-1131160.0	
758085.0	54.67432495049536	128.0	128.0	169322.84545898438	5548371.0	-81.57172579428266	-1131030.0	
758330.0	54.69199474954543	128.0	128.0	169323.82202148438	5548403.0	-81.55513781966422	-1130800.0	
757420.0	54.62636406735946	128.0	128.0	169324.79858398438	5548435.0	-81.53422254731925	-1130510.0	
757225.0	54.61230034974818	128.0	128.0	169325.77514648438	5548467.0	-81.51078301796711	-1130185.0	
758565.0	54.70894333230774	128.0	128.0	169326.75170898438	5548499.0	-81.49599808406808	-1129980.0	
758015.0	54.669276436481056	128.0	128.0	169327.72827148438	5548531.0	-81.49239200262929	-1129930.0	
758480.0	54.7028129938618	128.0	128.0	169328.70483398438	5548563.0	-81.4819343664568	-1129785.0	
757830.0	54.655933935157535	128.0	128.0	169329.68139648438	5548595.0	-81.48157375831292	-1129780.0	
757440.0	54.62780649993498	128.0	128.0	169330.65795898438	5548627.0	-81.47183733842819	-1129645.0	
758040.0	54.67107947720045	128.0	128.0	169331.63452148438	5548659.0	-81.47904950130577	-1129745.0	
758345.0	54.693076573977066	128.0	128.0	169332.61108398438	5548691.0	-81.51691335641306	-1130270.0	
757940.0	54.66386731432287	128.0	128.0	169333.58764648438	5548723.0	-81.55621964409586	-1130815.0	
757695.0	54.6461975152728	128.0	128.0	169334.56420898438	5548755.0	-81.53782862875804	-1130560.0	
758675.0	54.71687671147308	128.0	128.0	169335.54077148438	5548787.0	-81.51871639713245	-1130295.0	
758610.0	54.71218880560265	128.0	128.0	169336.51733398438	5548819.0	-81.48481923160783	-1129825.0	
757600.0	54.6393459605391	128.0	128.0	169337.49389648438	5548851.0	-81.44623416021278	-1129290.0	
757955.0	54.66494913875451	128.0	128.0	169338.47045898438	5548883.0	-81.34165779848789	-1127840.0	
758580.0	54.71002515673938	128.0	128.0	169339.44702148438	5548915.0	-81.27783015702131	-1126955.0	
757845.0	54.65701575958917	128.0	128.0	169340.42358398438	5548947.0	-81.20066001423122	-1125885.0	
758480.0	54.7028129938618	128.0	128.0	169341.40014648438	5548979.0	-81.17649926859133	-1125550.0	
757785.0	54.652688461862624	128.0	128.0	169342.37670898438	5549011.0	-81.16532041613108	-1125395.0	
758110.0	54.676127991214756	128.0	128.0	169343.35327148438	5549043.0	-81.17722048487909	-1125560.0	
757375.0	54.62311859406455	128.0	128.0	169344.32983398438	5549075.0	-81.16856588942599	-1125440.0	
757760.0	54.65088542114323	128.0	128.0	169345.30639648438	5549107.0	-81.16207494283617	-1125350.0	
756550.0	54.563618250324524	128.0	128.0	169346.28295898438	5549139.0	-81.15702642882187	-1125280.0	
756435.0	54.55532426301531	128.0	128.0	169347.25952148438	5549171.0	-81.15197791480756	-1125210.0	
757210.0	54.611218525316545	128.0	128.0	169348.23608398438	5549203.0	-81.15197791480756	-1125210.0	
756750.0	54.57804257607968	128.0	128.0	169349.21264648438	5549235.0	-81.13827480534016	-1125020.0	
756970.0	54.593909334410355	128.0	128.0	169350.18920898438	5549267.0	-81.14079906234731	-1125055.0	
757675.0	54.64475508269729	128.0	128.0	169351.16577148438	5549299.0	-81.12781716916767	-1124875.0	
758370.0	54.69487961469646	128.0	128.0	169352.14233398438	5549331.0	-81.18515386404442	-1125670.0	
757445.0	54.628167108078856	128.0	128.0	169353.11889648438	5549363.0	-81.23131170646093	-1126310.0	
758245.0	54.68586441109949	128.0	128.0	169354.09545898438	5549395.0	-81.23888447748239	-1126415.0	
758010.0	54.66891582833718	128.0	128.0	169355.07202148438	5549427.0	-81.23022988202929	-1126295.0	
758260.0	54.686946235531124	128.0	128.0	169356.04858398438	5549459.0	-81.18371143146891	-1125650.0	
758015.0	54.669276436481056	128.0	128.0	169357.02514648438	5549491.0	-81.15161730666368	-1125205.0	
758505.0	54.70461603458119	128.0	128.0	169358.00170898438	5549523.0	-81.07084108243478	-1124085.0	
758500.0	54.704255426437314	128.0	128.0	169358.97827148438	5549555.0	-81.00052249437839	-1123110.0	
757790.0	54.6530490700065	128.0	128.0	169359.95483398438	5549587.0	-80.92695843302708	-1122090.0	
758595.0	54.711106981171014	128.0	128.0	169360.93139648438	5549619.0	-80.86349139970439	-1121210.0	
758560.0	54.70858272416386	128.0	128.0	169361.90795898438	5549651.0	-80.86024592640948	-1121165.0	
757840.0	54.65665515144529	128.0	128.0	169362.88452148438	5549683.0	-80.85375497981966	-1121075.0	
758410.0	54.69776447984749	128.0	128.0	169363.86108398438	5549715.0	-80.84113369478389	-1120900.0	
758265.0	54.687306843675	128.0	128.0	169364.83764648438	5549747.0	-80.83320031561856	-1120790.0	
758805.0	54.72625252321393	128.0	128.0	169365.81420898438	5549779.0	-80.81769416543176	-1120575.0	
758820.0	54.72733434764557	128.0	128.0	169366.79077148438	5549811.0	-80.80723652925927	-1120430.0	
758245.0	54.68586441109949	128.0	128.0	169367.76733398438	5549843.0	-80.80182740710109	-1120355.0	
758895.0	54.73274346980375	128.0	128.0	169368.74389648438	5549875.0	-80.78920612206532	-1120180.0	
758795.0	54.72553130692617	128.0	128.0	169369.72045898438	5549907.0	-80.7776666614612	-1120020.0	
758405.0	54.697403871703614	128.0	128.0	169370.69702148438	5549939.0	-80.77297875559077	-1119955.0	
758235.0	54.68514319481173	128.0	128.0	169371.67358398438	5549971.0	-80.78812429763369	-1120165.0	
759025.0	54.7421192815446	128.0	128.0	169372.65014648438	5550003.0	-80.82598815274098	-1120690.0	
758370.0	54.69487961469646	128.0	128.0	169373.62670898438	5550035.0	-80.83608518076959	-1120830.0	
758085.0	54.67432495049536	128.0	128.0	169374.60327148438	5550067.0	-80.83103666675528	-1120760.0	
758755.0	54.72264644177514	128.0	128.0	169375.57983398438	5550099.0	-80.80471227225212	-1120395.0	
758885.0	54.73202225351599	128.0	128.0	169376.55639648438	5550131.0	-80.75314530767743	-1119680.0	
759260.0	54.759067864306914	128.0	128.0	169377.53295898438	5550163.0	-80.69076009878637	-1118815.0	
758025.0	54.669997652768814	128.0	128.0	169378.50952148438	5550195.0	-80.60385353611154	-1117610.0	
759365.0	54.76664063532837	128.0	128.0	169379.48608398438	5550227.0	-80.51766818972447	-1116415.0	
758760.0	54.72300704991902	128.0	128.0	169380.46264648438	5550259.0	-80.4314828433374	-1115220.0	
757910.0	54.6617036654596	128.0	128.0	169381.43920898438	5550291.0	-80.40948574656079	-1114915.0	
758505.0	54.70461603458119	128.0	128.0	169382.41577148438	5550323.0	-80.40119175925157	-1114800.0	
759125.0	54.74933144442218	128.0	128.0	169383.39233398438	5550355.0	-80.38748864978417	-1114610.0	
759170.0	54.75257691771709	128.0	128.0	169384.36889648438	5550387.0	-80.36152486342489	-1114250.0	
758745.0	54.72192522548738	128.0	128.0	169385.34545898438	5550419.0	-80.33808533407276	-1113925.0	
758100.0	54.675406774927	128.0	128.0	169386.32202148438	5550451.0	-80.33808533407276	-1113925.0	
758310.0	54.690552316969914	128.0	128.0	169387.29858398438	5550483.0	-80.30166391154098	-1113420.0	
757730.0	54.648721772279956	128.0	128.0	169388.27514648438	5550515.0	-80.30959729070632	-1113530.0	
757975.0	54.666391571330024	128.0	128.0	169389.25170898438	5550547.0	-80.28579715321031	-1113200.0	
758875.0	54.731301037228235	128.0	128.0	169390.22827148438	5550579.0	-80.26307884014594	-1112885.0	
758085.0	54.67432495049536	128.0	128.0	169391.20483398438	5550611.0	-80.27425769260618	-1113040.0	
758995.0	54.73995563268133	128.0	128.0	169392.18139648438	5550643.0	-80.28291228805928	-1113160.0	
758850.0	54.72949799650884	128.0	128.0	169393.15795898438	5550675.0	-80.32402161646148	-1113730.0	
757680.0	54.645115690841166	128.0	128.0	169394.13452148438	5550707.0	-80.3579187819861	-1114200.0	
756420.0	54.55424243858367	128.0	128.0	169395.11108398438	5550739.0	-80.35575513312283	-1114170.0	
756365.0	54.550275749001	128.0	128.0	169396.08764648438	5550771.0	-80.3186124943033	-1113655.0	
757675.0	54.64475508269729	128.0	128.0	169397.06420898438	5550803.0	-80.26740613787248	-1112945.0	
757255.0	54.614463998611456	128.0	128.0	169398.04077148438	5550835.0	-80.18049957519766	-1111740.0	
757965.0	54.665670355042266	128.0	128.0	169399.01733398438	5550867.0	-80.10909916270963	-1110750.0	
758150.0	54.67901285636579	128.0	128.0	169399.99389648438	5550899.0	-80.04563212938692	-1109870.0	
757910.0	54.6617036654596	128.0	128.0	169400.97045898438	5550931.0	-79.97855901462543	-1108940.0	
757930.0	54.663146098035114	128.0	128.0	169401.94702148438	5550963.0	-79.96990441917234	-1108820.0	
758280.0	54.68838866810664	128.0	128.0	169402.92358398438	5550995.0	-79.96593772958967	-1108765.0	
758230.0	54.68478258666785	128.0	128.0	169403.90014648438	5551027.0	-79.94718610610796	-1108505.0	
758460.0	54.70137056128628	128.0	128.0	169404.87670898438	5551059.0	-79.93600725364772	-1108350.0	
758440.0	54.699928128710766	128.0	128.0	169405.85327148438	5551091.0	-79.93925272694263	-1108395.0	
758415.0	54.69812508799137	128.0	128.0	169406.82983398438	5551123.0	-79.92302536046807	-1108170.0	
759475.0	54.77457401449371	128.0	128.0	169407.80639648438	5551155.0	-79.9345648210722	-1108330.0	
759655.0	54.78755590767335	128.0	128.0	169408.78295898438	5551187.0	-79.93095873963341	-1108280.0	
759085.0	54.74644657927115	128.0	128.0	169409.75952148438	5551219.0	-79.92627083376298	-1108215.0	
759410.0	54.76988610862328	128.0	128.0	169410.73608398438	5551251.0	-79.9327617803528	-1108305.0	
758740.0	54.7215646173435	128.0	128.0	169411.71264648438	5551283.0	-79.97351050061113	-1108870.0	
759090.0	54.74680718741503	128.0	128.0	169412.68920898438	5551315.0	-80.0218319918909	-1109540.0	
758610.0	54.71218880560265	128.0	128.0	169413.66577148438	5551347.0	-80.04851699453795	-1109910.0	
759365.0	54.76664063532837	128.0	128.0	169414.64233398438	5551379.0	-80.05248368412062	-1109965.0	
759370.0	54.76700124347225	128.0	128.0	169415.61889648438	5551411.0	-80.04202604794813	-1109820.0	
759235.0	54.75726482358752	128.0	128.0	169416.59545898438	5551443.0	-80.02327442446642	-1109560.0	
759440.0	54.772049757486556	128.0	128.0	169417.57202148438	5551475.0	-79.97855901462543	-1108940.0	
759290.0	54.76123151317019	128.0	128.0	169418.54858398438	5551507.0	-79.90932225100067	-1107980.0	
758840.0	54.72877678022108	128.0	128.0	169419.52514648438	5551539.0	-79.85595224570659	-1107240.0	
759260.0	54.759067864306914	128.0	128.0	169420.50170898438	5551571.0	-79.79609129382268	-1106410.0	
758840.0	54.72877678022108	128.0	128.0	169421.47827148438	5551603.0	-79.8061883218513	-1106550.0	
759735.0	54.793325637975414	128.0	128.0	169422.45483398438	5551635.0	-79.79789433454208	-1106435.0	
759730.0	54.792965029831535	128.0	128.0	169423.43139648438	5551667.0	-79.80871257885845	-1106585.0	
759020.0	54.741758673400724	128.0	128.0	169424.40795898438	5551699.0	-79.81340048472887	-1106650.0	
759300.0	54.761952729457946	128.0	128.0	169425.38452148438	5551731.0	-79.80763075442681	-1106570.0	
758770.0	54.72372826620678	128.0	128.0	169426.36108398438	5551763.0	-79.80835197071457	-1106580.0	
759285.0	54.76087090502631	128.0	128.0	169427.33764648438	5551795.0	-79.81520352544827	-1106675.0	
759515.0	54.77745887964474	128.0	128.0	169428.31420898438	5551827.0	-79.84188852809531	-1107045.0	
759225.0	54.75654360729976	128.0	128.0	169429.29077148438	5551859.0	-79.83539758150549	-1106955.0	
759650.0	54.78719529952947	128.0	128.0	169430.26733398438	5551891.0	-79.84657643396574	-1107110.0	
759395.0	54.768804284191646	128.0	128.0	169431.24389648438	5551923.0	-79.85991893528926	-1107295.0	
759505.0	54.77673766335698	128.0	128.0	169432.22045898438	5551955.0	-79.92122231974868	-1108145.0	
759925.0	54.807028747442814	128.0	128.0	169433.19702148438	5551987.0	-79.96269225629476	-1108720.0	
759910.0	54.80594692301118	128.0	128.0	169434.17358398438	5552019.0	-79.9944257729561	-1109160.0	
758880.0	54.731661645372114	128.0	128.0	169435.15014648438	5552051.0	-79.99478638109998	-1109165.0	
758795.0	54.72553130692617	128.0	128.0	169436.12670898438	5552083.0	-79.97170745989173	-1108845.0	
760135.0	54.82217428948573	128.0	128.0	169437.10327148438	5552115.0	-79.94394063281305	-1108460.0	
759340.0	54.76483759460898	128.0	128.0	169438.07983398438	5552147.0	-79.88588272164854	-1107655.0	
758995.0	54.73995563268133	128.0	128.0	169439.05639648438	5552179.0	-79.83251271635446	-1106915.0	
760055.0	54.81640455918367	128.0	128.0	169440.03295898438	5552211.0	-79.77950331920425	-1106180.0	
759500.0	54.7763770552131	128.0	128.0	169441.00952148438	5552243.0	-79.73803338265817	-1105605.0	
758640.0	54.714352454465924	128.0	128.0	169441.98608398438	5552275.0	-79.7546213572766	-1105835.0	
759175.0	54.75293752586097	128.0	128.0	169442.96264648438	5552307.0	-79.75786683057152	-1105880.0	
759955.0	54.80919239630609	128.0	128.0	169443.93920898438	5552339.0	-79.75498196542048	-1105840.0	
759380.0	54.76772245976001	128.0	128.0	169444.91577148438	5552371.0	-79.7769790621971	-1106145.0	
757670.0	54.64439447455341	128.0	128.0	169445.89233398438	5552403.0	-79.78094575177977	-1106200.0	
757640.0	54.642230825690135	128.0	128.0	169446.86889648438	5552435.0	-79.77770027848486	-1106155.0	
757660.0	54.64367325826565	128.0	128.0	169447.84545898438	5552467.0	-79.80510649741966	-1106535.0	
758130.0	54.67757042379027	128.0	128.0	169448.82202148438	5552499.0	-79.79176399609614	-1106350.0	
758880.0	54.731661645372114	128.0	128.0	169449.79858398438	5552531.0	-79.7975337263982	-1106430.0	
759030.0	54.74247988968848	128.0	128.0	169450.77514648438	5552563.0	-79.80330345670026	-1106510.0	
759175.0	54.75293752586097	128.0	128.0	169451.75170898438	5552595.0	-79.85378859684332	-1107210.0	
759970.0	54.810274220737725	128.0	128.0	169452.72827148438	5552627.0	-79.91076468357619	-1108000.0	
758835.0	54.7284161720772	128.0	128.0	169453.70483398438	5552659.0	-79.9277132663385	-1108235.0	
760315.0	54.83515618266537	128.0	128.0	169454.68139648438	5552691.0	-79.9190586708854	-1108115.0	
759815.0	54.79909536827748	128.0	128.0	169455.65795898438	5552723.0	-79.90571616956188	-1107930.0	
760515.0	54.84958050842053	128.0	128.0	169456.63452148438	5552755.0	-79.89201306009448	-1107740.0	
760150.0	54.82325611391737	128.0	128.0	169457.61108398438	5552787.0	-79.83215210821058	-1106910.0	
759840.0	54.80089840899687	128.0	128.0	169458.58764648438	5552819.0	-79.77481541333383	-1106115.0	
760010.0	54.813159085888756	128.0	128.0	169459.56420898438	5552851.0	-79.7203635836081	-1105360.0	
759285.0	54.76087090502631	128.0	128.0	169460.54077148438	5552883.0	-79.66122384801196	-1104540.0	
760405.0	54.84164712925519	128.0	128.0	169461.51733398438	5552915.0	-79.67456634933548	-1104725.0	
760145.0	54.82289550577349	128.0	128.0	169462.49389648438	5552947.0	-79.67384513304772	-1104715.0	
759890.0	54.80450449043566	128.0	128.0	169463.47045898438	5552979.0	-79.68358155293245	-1104850.0	
759860.0	54.80234084157239	128.0	128.0	169464.44702148438	5553011.0	-79.68538459365185	-1104875.0	
759270.0	54.75978908059467	128.0	128.0	169465.42358398438	5553043.0	-79.6810572959253	-1104815.0	
760050.0	54.81604395103979	128.0	128.0	169466.40014648438	5553075.0	-79.67168148418445	-1104685.0	
760350.0	54.837680439672525	128.0	128.0	169467.37670898438	5553107.0	-79.68358155293245	-1104850.0	
759435.0	54.77168914934268	128.0	128.0	169468.35327148438	5553139.0	-79.71639689402544	-1105305.0	
759870.0	54.803062057860146	128.0	128.0	169469.32983398438	5553171.0	-79.70521804156519	-1105150.0	
759710.0	54.79152259725602	128.0	128.0	169470.30639648438	5553203.0	-79.7153150695938	-1105290.0	
759155.0	54.751495093285456	128.0	128.0	169471.28295898438	5553235.0	-79.74200007224084	-1105660.0	
760695.0	54.86256240160017	128.0	128.0	169472.25952148438	5553267.0	-79.77914271106037	-1106175.0	
760195.0	54.82650158721228	128.0	128.0	169473.23608398438	5553299.0	-79.82457933718912	-1106805.0	
760345.0	54.837319831528646	128.0	128.0	169474.21264648438	5553331.0	-79.85487042127495	-1107225.0	
760365.0	54.83876226410416	128.0	128.0	169475.18920898438	5553363.0	-79.85126433983616	-1107175.0	
760265.0	54.83155010122658	128.0	128.0	169476.16577148438	5553395.0	-79.83828244665652	-1106995.0	
760045.0	54.81568334289591	128.0	128.0	169477.14233398438	5553427.0	-79.81015501143396	-1106605.0	
760575.0	54.85390780614708	128.0	128.0	169478.11889648438	5553459.0	-79.74560615367963	-1105710.0	
760305.0	54.834434966377614	128.0	128.0	169479.09545898438	5553491.0	-79.70016952755088	-1105080.0	
760335.0	54.83659861524089	128.0	128.0	169480.07202148438	5553523.0	-79.61795087074648	-1103940.0	
760860.0	54.87446247034818	128.0	128.0	169481.04858398438	5553555.0	-79.59847803097702	-1103670.0	
760190.0	54.8261409790684	128.0	128.0	169482.02514648438	5553587.0	-79.61001749158115	-1103830.0	
759990.0	54.81171665331324	128.0	128.0	169483.00170898438	5553619.0	-79.63129337207	-1104125.0	
758790.0	54.72517069878229	128.0	128.0	169483.97827148438	5553651.0	-79.6486025629762	-1104365.0	
760145.0	54.82289550577349	128.0	128.0	169484.95483398438	5553683.0	-79.61795087074648	-1103940.0	
760325.0	54.83587739895313	128.0	128.0	169485.93139648438	5553715.0	-79.64607830596904	-1104330.0	
760415.0	54.84236834554295	128.0	128.0	169486.90795898438	5553747.0	-79.65076621183947	-1104395.0	
760250.0	54.830468276794946	128.0	128.0	169487.88452148438	5553779.0	-79.676008781911	-1104745.0	
758735.0	54.721204009199624	128.0	128.0	169488.86108398438	5553811.0	-79.69800587868761	-1105050.0	
760695.0	54.86256240160017	128.0	128.0	169489.83764648438	5553843.0	-79.67492695747936	-1104730.0	
760735.0	54.865447266751204	128.0	128.0	169490.81420898438	5553875.0	-79.6828603366447	-1104840.0	
760350.0	54.837680439672525	128.0	128.0	169491.79077148438	5553907.0	-79.72829696277344	-1105470.0	
760115.0	54.820731856910214	128.0	128.0	169492.76733398438	5553939.0	-79.76111230386643	-1105925.0	
760385.0	54.84020469667968	128.0	128.0	169493.74389648438	5553971.0	-79.76760325045625	-1106015.0	
759905.0	54.8055863148673	128.0	128.0	169494.72045898438	5554003.0	-79.81159744400948	-1106625.0	
758860.0	54.7302192127966	128.0	128.0	169495.69702148438	5554035.0	-79.80907318700233	-1106590.0	
758690.0	54.717958535904714	128.0	128.0	169496.67358398438	5554067.0	-79.80294284855638	-1106505.0	
758680.0	54.717237319616956	128.0	128.0	169497.65014648438	5554099.0	-79.74813041068678	-1105745.0	
759010.0	54.74103745711297	128.0	128.0	169498.62670898438	5554131.0	-79.68213912035694	-1104830.0	
759895.0	54.80486509857954	128.0	128.0	169499.60327148438	5554163.0	-79.63453884536492	-1104170.0	
760065.0	54.817125775471425	128.0	128.0	169500.57983398438	5554195.0	-79.58982343552393	-1103550.0	
760265.0	54.83155010122658	128.0	128.0	169501.55639648438	5554227.0	-79.58729917851677	-1103515.0	
760300.0	54.834074358233735	128.0	128.0	169502.53295898438	5554259.0	-79.59847803097702	-1103670.0	
759465.0	54.77385279820595	128.0	128.0	169503.50952148438	5554291.0	-79.6107387078689	-1103840.0	
760535.0	54.851022940996046	128.0	128.0	169504.48608398438	5554323.0	-79.61182053230054	-1103855.0	
760980.0	54.88311706580127	128.0	128.0	169505.46264648438	5554355.0	-79.60605080199848	-1103775.0	
760155.0	54.823616722061246	128.0	128.0	169506.43920898438	5554387.0	-79.60605080199848	-1103775.0	
761500.0	54.92062031276468	128.0	128.0	169507.41577148438	5554419.0	-79.61686904631485	-1103925.0	
760230.0	54.82902584421943	128.0	128.0	169508.39233398438	5554451.0	-79.63706310237207	-1104205.0	
760705.0	54.86328361788793	128.0	128.0	169509.36889648438	5554483.0	-79.65401168513438	-1104440.0	
761020.0	54.886001930952304	128.0	128.0	169510.34545898438	5554515.0	-79.67059965975281	-1104670.0	
760725.0	54.864726050463446	128.0	128.0	169511.32202148438	5554547.0	-79.69151493209779	-1104960.0	
760930.0	54.87951098436248	128.0	128.0	169512.29858398438	5554579.0	-79.74163946409696	-1105655.0	
760000.0	54.812437869601	128.0	128.0	169513.27514648438	5554611.0	-79.78419122507468	-1106245.0	
760710.0	54.86364422603181	128.0	128.0	169514.25170898438	5554643.0	-79.813039876585	-1106645.0	
760165.0	54.824337938349004	128.0	128.0	169515.22827148438	5554675.0	-79.81376109287275	-1106655.0	
761480.0	54.91917788018917	128.0	128.0	169516.20483398438	5554707.0	-79.79320642867165	-1106370.0	
760415.0	54.84236834554295	128.0	128.0	169517.18139648438	5554739.0	-79.75966987129091	-1105905.0	
761055.0	54.88852618795946	128.0	128.0	169518.15795898438	5554771.0	-79.71062716372337	-1105225.0	
760835.0	54.87265942962878	128.0	128.0	169519.13452148438	5554803.0	-79.66519053759463	-1104595.0	
761455.0	54.91737483946977	128.0	128.0	169520.11108398438	5554835.0	-79.60532958571072	-1103765.0	
761285.0	54.90511416257789	128.0	128.0	169521.08764648438	5554867.0	-79.59667499025763	-1103645.0	
760375.0	54.83948348039192	128.0	128.0	169522.06420898438	5554899.0	-79.6125417485883	-1103865.0	
760880.0	54.87590490292369	128.0	128.0	169523.04077148438	5554931.0	-79.63237519650164	-1104140.0	
759300.0	54.761952729457946	128.0	128.0	169524.01733398438	5554963.0	-79.65329046884662	-1104430.0	
760535.0	54.851022940996046	128.0	128.0	169524.99389648438	5554995.0	-79.6417510082425	-1104270.0	
760855.0	54.8741018622043	128.0	128.0	169525.97045898438	5555027.0	-79.66446932130687	-1104585.0	
760410.0	54.84200773739907	128.0	128.0	169526.94702148438	5555059.0	-79.65617533399765	-1104470.0	
760400.0	54.841286521111314	128.0	128.0	169527.92358398438	5555091.0	-79.6810572959253	-1104815.0	
759530.0	54.77854070407638	128.0	128.0	169528.90014648438	5555123.0	-79.70774229857234	-1105185.0	
760240.0	54.82974706050719	128.0	128.0	169529.87670898438	5555155.0	-79.70593925785295	-1105160.0	
760250.0	54.830468276794946	128.0	128.0	169530.85327148438	5555187.0	-79.73731216637042	-1105595.0	
760240.0	54.82974706050719	128.0	128.0	169531.82983398438	5555219.0	-79.81267926844112	-1106640.0	
760120.0	54.82109246505409	128.0	128.0	169532.80639648438	5555251.0	-79.85270677241168	-1107195.0	
760795.0	54.86977456447775	128.0	128.0	169533.78295898438	5555283.0	-79.8747038691883	-1107500.0	
760360.0	54.83840165596028	128.0	128.0	169534.75952148438	5555315.0	-79.91076468357619	-1108000.0	
758975.0	54.738513200105814	128.0	128.0	169535.73608398438	5555347.0	-79.9071586021374	-1107950.0	
759870.0	54.803062057860146	128.0	128.0	169536.71264648438	5555379.0	-79.89814339854043	-1107825.0	
759665.0	54.78827712396111	128.0	128.0	169537.68920898438	5555411.0	-79.8436915688147	-1107070.0	
759485.0	54.77529523078147	128.0	128.0	169538.66577148438	5555443.0	-79.81087622772172	-1106615.0	
759875.0	54.803422666004025	128.0	128.0	169539.64233398438	5555475.0	-79.76543960159297	-1105985.0	
760465.0	54.84597442698174	128.0	128.0	169540.61889648438	5555507.0	-79.7221666243275	-1105385.0	
759865.0	54.80270144971627	128.0	128.0	169541.59545898438	5555539.0	-79.7308212197806	-1105505.0	
760780.0	54.868692740046114	128.0	128.0	169542.57202148438	5555571.0	-79.72793635462956	-1105465.0	
760145.0	54.82289550577349	128.0	128.0	169543.54858398438	5555603.0	-79.74019703152145	-1105635.0	
759945.0	54.80847118001833	128.0	128.0	169544.52514648438	5555635.0	-79.77986392734813	-1106185.0	
759225.0	54.75654360729976	128.0	128.0	169545.50170898438	5555667.0	-79.78851852280123	-1106305.0	
758935.0	54.73562833495478	128.0	128.0	169546.47827148438	5555699.0	-79.79897615897372	-1106450.0	
759155.0	54.751495093285456	128.0	128.0	169547.45483398438	5555731.0	-79.80871257885845	-1106585.0	
760290.0	54.83335314194598	128.0	128.0	169548.43139648438	5555763.0	-79.81953082317482	-1106735.0	
759420.0	54.77060732491104	128.0	128.0	169549.40795898438	5555795.0	-79.82818541862791	-1106855.0	
759595.0	54.7832286099468	128.0	128.0	169550.38452148438	5555827.0	-79.84405217695858	-1107075.0	
759670.0	54.78863773210499	128.0	128.0	169551.36108398438	5555859.0	-79.88948880308733	-1107705.0	
760045.0	54.81568334289591	128.0	128.0	169552.33764648438	5555891.0	-79.93564664550384	-1108345.0	
760890.0	54.87662611921145	128.0	128.0	169553.31420898438	5555923.0	-79.97459232504276	-1108885.0	
760015.0	54.813519694032635	128.0	128.0	169554.29077148438	5555955.0	-79.99695002996326	-1109195.0	
760855.0	54.8741018622043	128.0	128.0	169555.26733398438	5555987.0	-79.99370455666835	-1109150.0	
760745.0	54.86616848303896	128.0	128.0	169556.24389648438	5556019.0	-79.98324692049586	-1109005.0	
760700.0	54.86292300974405	128.0	128.0	169557.22045898438	5556051.0	-79.97351050061113	-1108870.0	
760315.0	54.83515618266537	128.0	128.0	169558.19702148438	5556083.0	-79.89958583111594	-1107845.0	
760775.0	54.868332131902235	128.0	128.0	169559.17358398438	5556115.0	-79.8642462330158	-1107355.0	
761290.0	54.90547477072177	128.0	128.0	169560.15014648438	5556147.0	-79.82205508018197	-1106770.0	
760875.0	54.875544294779814	128.0	128.0	169561.12670898438	5556179.0	-79.81267926844112	-1106640.0	
761405.0	54.91376875803098	128.0	128.0	169562.10327148438	5556211.0	-79.83215210821058	-1106910.0	
760950.0	54.880953416938	128.0	128.0	169563.07983398438	5556243.0	-79.83539758150549	-1106955.0	
760425.0	54.84308956183071	128.0	128.0	169564.05639648438	5556275.0	-79.84333096067083	-1107065.0	
760325.0	54.83587739895313	128.0	128.0	169565.03295898438	5556307.0	-79.8610007597209	-1107310.0	
761485.0	54.919538488333046	128.0	128.0	169566.00952148438	5556339.0	-79.84441278510246	-1107080.0	
760790.0	54.86941395633387	128.0	128.0	169566.98608398438	5556371.0	-79.86496744930356	-1107365.0	
760630.0	54.857874495729746	128.0	128.0	169567.96264648438	5556403.0	-79.89093123566285	-1107725.0	
761105.0	54.892132269398246	128.0	128.0	169568.93920898438	5556435.0	-79.8985040066843	-1107830.0	
761290.0	54.90547477072177	128.0	128.0	169569.91577148438	5556467.0	-79.89634035782103	-1107800.0	
760485.0	54.847416859557256	128.0	128.0	169570.89233398438	5556499.0	-79.91364954872722	-1108040.0	
761145.0	54.89501713454928	128.0	128.0	169571.86889648438	5556531.0	-79.97206806803561	-1108850.0	
760980.0	54.88311706580127	128.0	128.0	169572.84545898438	5556563.0	-80.01353800458169	-1109425.0	
760950.0	54.880953416938	128.0	128.0	169573.82202148438	5556595.0	-80.03625631764606	-1109740.0	
761190.0	54.89826260784419	128.0	128.0	169574.79858398438	5556627.0	-80.03950179094097	-1109785.0	
760715.0	54.86400483417569	128.0	128.0	169575.77514648438	5556659.0	-80.018586518596	-1109495.0	
761020.0	54.886001930952304	128.0	128.0	169576.75170898438	5556691.0	-80.01029253128678	-1109380.0	
761020.0	54.886001930952304	128.0	128.0	169577.72827148438	5556723.0	-79.95295583641003	-1108585.0	
760545.0	54.851744157283804	128.0	128.0	169578.70483398438	5556755.0	-79.9071586021374	-1107950.0	
761840.0	54.94514166654845	128.0	128.0	169579.68139648438	5556787.0	-79.8642462330158	-1107355.0	
760635.0	54.858235103873625	128.0	128.0	169580.65795898438	5556819.0	-79.82241568832585	-1106775.0	
761145.0	54.89501713454928	128.0	128.0	169581.63452148438	5556851.0	-79.83611879779325	-1106965.0	
761485.0	54.919538488333046	128.0	128.0	169582.61108398438	5556883.0	-79.83972487923204	-1107015.0	
761105.0	54.892132269398246	128.0	128.0	169583.58764648438	5556915.0	-79.84765825839737	-1107125.0	
761535.0	54.923144569771836	128.0	128.0	169584.56420898438	5556947.0	-79.84910069097289	-1107145.0	
761695.0	54.93468403037596	128.0	128.0	169585.54077148438	5556979.0	-79.85126433983616	-1107175.0	
761230.0	54.90114747299522	128.0	128.0	169586.51733398438	5557011.0	-79.86640988187908	-1107385.0	
761185.0	54.89790199970031	128.0	128.0	169587.49389648438	5557043.0	-79.87867055877096	-1107555.0	
761325.0	54.90799902772892	128.0	128.0	169588.47045898438	5557075.0	-79.88804637051182	-1107685.0	
761520.0	54.9220627453402	128.0	128.0	169589.44702148438	5557107.0	-79.90319191255473	-1107895.0	
760960.0	54.88167463322576	128.0	128.0	169590.42358398438	5557139.0	-79.91977988717316	-1108125.0	
761265.0	54.90367173000237	128.0	128.0	169591.40014648438	5557171.0	-79.93781029436711	-1108375.0	
761590.0	54.927111259354504	128.0	128.0	169592.37670898438	5557203.0	-79.99226212409283	-1109130.0	
760645.0	54.85895632016138	128.0	128.0	169593.35327148438	5557235.0	-80.03625631764606	-1109740.0	
760670.0	54.86075936088078	128.0	128.0	169594.32983398438	5557267.0	-80.09467483695445	-1110550.0	
759040.0	54.74320110597624	128.0	128.0	169595.30639648438	5557299.0	-80.10116578354427	-1110640.0	
758475.0	54.70245238571792	128.0	128.0	169596.28295898438	5557331.0	-80.09647787767385	-1110575.0	
759845.0	54.80125901714075	128.0	128.0	169597.25952148438	5557363.0	-80.04382908866752	-1109845.0	
759640.0	54.786474083241714	128.0	128.0	169598.23608398438	5557395.0	-80.01281678829393	-1109415.0	
759940.0	54.80811057187445	128.0	128.0	169599.21264648438	5557427.0	-79.9601679992876	-1108685.0	
760250.0	54.830468276794946	128.0	128.0	169600.18920898438	5557459.0	-79.92987691520177	-1108265.0	
759985.0	54.81135604516936	128.0	128.0	169601.16577148438	5557491.0	-79.94177698394978	-1108430.0	
761145.0	54.89501713454928	128.0	128.0	169602.14233398438	5557523.0	-79.94430124095693	-1108465.0	
760495.0	54.848138075845014	128.0	128.0	169603.11889648438	5557555.0	-79.97819840648155	-1108935.0	
760650.0	54.85931692830526	128.0	128.0	169604.09545898438	5557587.0	-79.99262273223671	-1109135.0	
760525.0	54.85030172470829	128.0	128.0	169605.07202148438	5557619.0	-79.97891962276931	-1108945.0	
760650.0	54.85931692830526	128.0	128.0	169606.04858398438	5557651.0	-80.0218319918909	-1109540.0	
761030.0	54.88672314724006	128.0	128.0	169607.02514648438	5557683.0	-80.0218319918909	-1109540.0	
760555.0	54.85246537357156	128.0	128.0	169608.00170898438	5557715.0	-80.06762922616353	-1110175.0	
760805.0	54.87049578076551	128.0	128.0	169608.97827148438	5557747.0	-80.08169294377481	-1110370.0	
761515.0	54.92170213719632	128.0	128.0	169609.95483398438	5557779.0	-80.0784474704799	-1110325.0	
761405.0	54.91376875803098	128.0	128.0	169610.93139648438	5557811.0	-80.10477186498308	-1110690.0	
761015.0	54.885641322808425	128.0	128.0	169611.90795898438	5557843.0	-80.18013896705378	-1111735.0	
760290.0	54.83335314194598	128.0	128.0	169612.88452148438	5557875.0	-80.23134532348459	-1112445.0	
760745.0	54.86616848303896	128.0	128.0	169613.86108398438	5557907.0	-80.24721208181526	-1112665.0	
761790.0	54.94153558510966	128.0	128.0	169614.83764648438	5557939.0	-80.2464908655275	-1112655.0	
761350.0	54.909802068448315	128.0	128.0	169615.81420898438	5557971.0	-80.23927870264993	-1112555.0	
760740.0	54.86580787489508	128.0	128.0	169616.79077148438	5558003.0	-80.23314836420398	-1112470.0	
761255.0	54.902950513714615	128.0	128.0	169617.76733398438	5558035.0	-80.19095721137015	-1111885.0	
761555.0	54.92458700234735	128.0	128.0	169618.74389648438	5558067.0	-80.16030551914044	-1111460.0	
760705.0	54.86328361788793	128.0	128.0	169619.72045898438	5558099.0	-80.14335693637813	-1111225.0	
760575.0	54.85390780614708	128.0	128.0	169620.69702148438	5558131.0	-80.1008051754004	-1110635.0	
761370.0	54.91124450102383	128.0	128.0	169621.67358398438	5558163.0	-80.11414767672393	-1110820.0	
761310.0	54.90691720329728	128.0	128.0	169622.65014648438	5558195.0	-80.12208105588927	-1110930.0	
760975.0	54.88275645765739	128.0	128.0	169623.62670898438	5558227.0	-80.14984788296795	-1111315.0	
761920.0	54.950911396850515	128.0	128.0	169624.60327148438	5558259.0	-80.14588119338528	-1111260.0	
760765.0	54.86761091561448	128.0	128.0	169625.57983398438	5558291.0	-80.1505690992557	-1111325.0	
761640.0	54.930717340793294	128.0	128.0	169626.55639648438	5558323.0	-80.15850247842104	-1111435.0	
761105.0	54.892132269398246	128.0	128.0	169627.53295898438	5558355.0	-80.18302383220481	-1111775.0	
761675.0	54.933241597800446	128.0	128.0	169628.50952148438	5558387.0	-80.19131781951403	-1111890.0	
762110.0	54.964614506317915	128.0	128.0	169629.48608398438	5558419.0	-80.21187248371513	-1112175.0	
761005.0	54.88492010652067	128.0	128.0	169630.46264648438	5558451.0	-80.22846045833356	-1112405.0	
761605.0	54.92819308378614	128.0	128.0	169631.43920898438	5558483.0	-80.26343944828982	-1112890.0	
761395.0	54.913047541743225	128.0	128.0	169632.41577148438	5558515.0	-80.31140033142572	-1113555.0	
761990.0	54.95595991086482	128.0	128.0	169633.39233398438	5558547.0	-80.34673992952585	-1114045.0	
760750.0	54.86652909118284	128.0	128.0	169634.36889648438	5558579.0	-80.36008243084937	-1114230.0	
761275.0	54.90439294629013	128.0	128.0	169635.34545898438	5558611.0	-80.35359148425955	-1114140.0	
761445.0	54.916653623182015	128.0	128.0	169636.32202148438	5558643.0	-80.33664290149724	-1113905.0	
762085.0	54.96281146559852	128.0	128.0	169637.29858398438	5558675.0	-80.32510344089312	-1113745.0	
761460.0	54.91773544761365	128.0	128.0	169638.27514648438	5558707.0	-80.28110924733988	-1113135.0	
760730.0	54.865086658607325	128.0	128.0	169639.25170898438	5558739.0	-80.24504843295199	-1112635.0	
760780.0	54.868692740046114	128.0	128.0	169640.22827148438	5558771.0	-80.20646336155694	-1112100.0	
761160.0	54.896098958980915	128.0	128.0	169641.20483398438	5558803.0	-80.21079065928349	-1112160.0	
761235.0	54.9015080811391	128.0	128.0	169642.18139648438	5558835.0	-80.23098471534071	-1112440.0	
762185.0	54.9700236284761	128.0	128.0	169643.15795898438	5558867.0	-80.24180295965708	-1112590.0	
760860.0	54.87446247034818	128.0	128.0	169644.13452148438	5558899.0	-80.26091519128266	-1112855.0	
760145.0	54.82289550577349	128.0	128.0	169645.11108398438	5558931.0	-80.26920917859188	-1112970.0	
759990.0	54.81171665331324	128.0	128.0	169646.08764648438	5558963.0	-80.27678194961334	-1113075.0	
759860.0	54.80234084157239	128.0	128.0	169647.06420898438	5558995.0	-80.2944517486634	-1113320.0	
759940.0	54.80811057187445	128.0	128.0	169648.04077148438	5559027.0	-80.32582465718087	-1113755.0	
760850.0	54.87374125406042	128.0	128.0	169649.01733398438	5559059.0	-80.33952776664827	-1113945.0	
760510.0	54.84921990027665	128.0	128.0	169649.99389648438	5559091.0	-80.35142783539628	-1114110.0	
760565.0	54.85318658985932	128.0	128.0	169650.97045898438	5559123.0	-80.38280074391375	-1114545.0	
761580.0	54.926390043066746	128.0	128.0	169651.94702148438	5559155.0	-80.39974932667606	-1114780.0	
761060.0	54.888886796103336	128.0	128.0	169652.92358398438	5559187.0	-80.46321635999875	-1115660.0	
760890.0	54.87662611921145	128.0	128.0	169653.90014648438	5559219.0	-80.4830498079121	-1115935.0	
761665.0	54.93252038151269	128.0	128.0	169654.87670898438	5559251.0	-80.44410412837317	-1115395.0	
761800.0	54.94225680139742	128.0	128.0	169655.85327148438	5559283.0	-80.45275872382626	-1115515.0	
761060.0	54.888886796103336	128.0	128.0	169656.82983398438	5559315.0	-80.4538405482579	-1115530.0	
760900.0	54.87734733549921	128.0	128.0	169657.80639648438	5559347.0	-80.41345243614346	-1114970.0	
761575.0	54.92602943492287	128.0	128.0	169658.78295898438	5559379.0	-80.38965229864745	-1114640.0	
761690.0	54.93432342223208	128.0	128.0	169659.75952148438	5559411.0	-80.36260668785653	-1114265.0	
760860.0	54.87446247034818	128.0	128.0	169660.73608398438	5559443.0	-80.35683695755446	-1114185.0	
761660.0	54.93215977336881	128.0	128.0	169661.71264648438	5559475.0	-80.36549155300756	-1114305.0	
761265.0	54.90367173000237	128.0	128.0	169662.68920898438	5559507.0	-80.38280074391375	-1114545.0	
762220.0	54.97254788548325	128.0	128.0	169663.66577148438	5559539.0	-80.37775222989944	-1114475.0	
761660.0	54.93215977336881	128.0	128.0	169664.64233398438	5559571.0	-80.37739162175556	-1114470.0	
761265.0	54.90367173000237	128.0	128.0	169665.61889648438	5559603.0	-80.39758567781278	-1114750.0	
761965.0	54.954156870145425	128.0	128.0	169666.59545898438	5559635.0	-80.41128878728018	-1114940.0	
762540.0	54.99562680669151	128.0	128.0	169667.57202148438	5559667.0	-80.43725257363947	-1115300.0	
761530.0	54.92278396162796	128.0	128.0	169668.54858398438	5559699.0	-80.45023446681911	-1115480.0	
761505.0	54.92098092090856	128.0	128.0	169669.52514648438	5559731.0	-80.47151034730797	-1115775.0	
762480.0	54.991299508964964	128.0	128.0	169670.50170898438	5559763.0	-80.4949498766601	-1116100.0	
762190.0	54.97038423661998	128.0	128.0	169671.47827148438	5559795.0	-80.54543501680315	-1116800.0	
761150.0	54.89537774269316	128.0	128.0	169672.45483398438	5559827.0	-80.60890205012585	-1117680.0	
761580.0	54.926390043066746	128.0	128.0	169673.43139648438	5559859.0	-80.61791725372282	-1117805.0	
761560.0	54.92494761049123	128.0	128.0	169674.40795898438	5559891.0	-80.65722354140563	-1118350.0	
761725.0	54.936847679239236	128.0	128.0	169675.38452148438	5559923.0	-80.64640529708926	-1118200.0	
762550.0	54.99634802297927	128.0	128.0	169676.36108398438	5559955.0	-80.65109320295969	-1118265.0	
761365.0	54.91088389287995	128.0	128.0	169677.33764648438	5559987.0	-80.6388325260678	-1118095.0	
762080.0	54.96245085745464	128.0	128.0	169678.31420898438	5560019.0	-80.58690495334923	-1117375.0	
761455.0	54.91737483946977	128.0	128.0	169679.29077148438	5560051.0	-80.57572610088899	-1117220.0	
761895.0	54.94910835613112	128.0	128.0	169680.26733398438	5560083.0	-80.56635028914813	-1117090.0	
762070.0	54.96172964116688	128.0	128.0	169681.24389648438	5560115.0	-80.53930467835721	-1116715.0	
760830.0	54.872298821484904	128.0	128.0	169682.22045898438	5560147.0	-80.57500488460123	-1117210.0	
761645.0	54.93107794893717	128.0	128.0	169683.19702148438	5560179.0	-80.58041400675941	-1117285.0	
762525.0	54.994544982259875	128.0	128.0	169684.17358398438	5560211.0	-80.60168988724827	-1117580.0	
761510.0	54.92134152905244	128.0	128.0	169685.15014648438	5560243.0	-80.62621124103204	-1117920.0	
761655.0	54.93179916522493	128.0	128.0	169686.12670898438	5560275.0	-80.62188394330549	-1117860.0	
761775.0	54.940453760678025	128.0	128.0	169687.10327148438	5560307.0	-80.66227205541993	-1118420.0	
762285.0	54.97723579135368	128.0	128.0	169688.07983398438	5560339.0	-80.66659935314648	-1118480.0	
762645.0	55.00319957771297	128.0	128.0	169689.05639648438	5560371.0	-80.69292374764964	-1118845.0	
761500.0	54.92062031276468	128.0	128.0	169690.03295898438	5560403.0	-80.7347542923396	-1119425.0	
760985.0	54.88347767394515	128.0	128.0	169691.00952148438	5560435.0	-80.74124523892942	-1119515.0	
761735.0	54.937568895526994	128.0	128.0	169691.98608398438	5560467.0	-80.80290923153272	-1120370.0	
761540.0	54.923505177915715	128.0	128.0	169692.96264648438	5560499.0	-80.85195193910026	-1121050.0	
760575.0	54.85390780614708	128.0	128.0	169693.93920898438	5560531.0	-80.89161883492694	-1121600.0	
760710.0	54.86364422603181	128.0	128.0	169694.91577148438	5560563.0	-80.91794322943011	-1121965.0	
759425.0	54.77096793305492	128.0	128.0	169695.89233398438	5560595.0	-80.89450370007798	-1121640.0	
760940.0	54.88023220065024	128.0	128.0	169696.86889648438	5560627.0	-80.88080059061058	-1121450.0	
760285.0	54.8329925338021	128.0	128.0	169697.84545898438	5560659.0	-80.83969126220838	-1120880.0	
761880.0	54.94802653169948	128.0	128.0	169698.82202148438	5560691.0	-80.79750010937454	-1120295.0	
760465.0	54.84597442698174	128.0	128.0	169699.79858398438	5560723.0	-80.77983031032447	-1120050.0	
761365.0	54.91088389287995	128.0	128.0	169700.77514648438	5560755.0	-80.75170287510191	-1119660.0	
761880.0	54.94802653169948	128.0	128.0	169701.75170898438	5560787.0	-80.76720902528871	-1119875.0	
761185.0	54.89790199970031	128.0	128.0	169702.72827148438	5560819.0	-80.80146679895721	-1120350.0	
762095.0	54.96353268188628	128.0	128.0	169703.70483398438	5560851.0	-80.78920612206532	-1120180.0	
762450.0	54.98913586010169	128.0	128.0	169704.68139648438	5560883.0	-80.80795774554703	-1120440.0	
761515.0	54.92170213719632	128.0	128.0	169705.65795898438	5560915.0	-80.80110619081333	-1120345.0	
762900.0	55.021590593050796	128.0	128.0	169706.63452148438	5560947.0	-80.82093963872667	-1120620.0	
761270.0	54.90403233814625	128.0	128.0	169707.61108398438	5560979.0	-80.86096714269723	-1121175.0	
762155.0	54.967859979612825	128.0	128.0	169708.58764648438	5561011.0	-80.84473977622268	-1120950.0	
762250.0	54.974711534346525	128.0	128.0	169709.56420898438	5561043.0	-80.88007937432282	-1121440.0	
761675.0	54.933241597800446	128.0	128.0	169710.54077148438	5561075.0	-80.88909457791979	-1121565.0	
762995.0	55.028442147784496	128.0	128.0	169711.51733398438	5561107.0	-80.94498884022103	-1122340.0	
762395.0	54.98516917051902	128.0	128.0	169712.49389648438	5561139.0	-81.00232553509778	-1123135.0	
763300.0	55.05043924456111	128.0	128.0	169713.47045898438	5561171.0	-81.00917708983148	-1123230.0	
761920.0	54.950911396850515	128.0	128.0	169714.44702148438	5561203.0	-81.04343486349998	-1123705.0	
761920.0	54.950911396850515	128.0	128.0	169715.42358398438	5561235.0	-81.03081357846422	-1123530.0	
762515.0	54.99382376597212	128.0	128.0	169716.40014648438	5561267.0	-81.02684688888155	-1123475.0	
762725.0	55.00896930801503	128.0	128.0	169717.37670898438	5561299.0	-81.00953769797536	-1123235.0	
762950.0	55.025196674489585	128.0	128.0	169718.35327148438	5561331.0	-80.95256161124249	-1122445.0	
761875.0	54.947665923555604	128.0	128.0	169719.32983398438	5561363.0	-80.94138275878224	-1122290.0	
762560.0	54.99706923926703	128.0	128.0	169720.30639648438	5561395.0	-80.9334493796169	-1122180.0	
762330.0	54.980481264648596	128.0	128.0	169721.28295898438	5561427.0	-80.92371295973217	-1122045.0	
761890.0	54.94874774798724	128.0	128.0	169722.25952148438	5561459.0	-80.96878897771704	-1122670.0	
762360.0	54.98264491351187	128.0	128.0	169723.23608398438	5561491.0	-80.96590411256601	-1122630.0	
762795.0	55.01401782202934	128.0	128.0	169724.21264648438	5561523.0	-80.98790120934262	-1122935.0	
762265.0	54.97579335877816	128.0	128.0	169725.18920898438	5561555.0	-81.00665283282433	-1123195.0	
763475.0	55.063060529596875	128.0	128.0	169726.16577148438	5561587.0	-81.01386499570191	-1123295.0	
762470.0	54.990578292677206	128.0	128.0	169727.14233398438	5561619.0	-81.06290770326945	-1123975.0	
761905.0	54.94982957241888	128.0	128.0	169728.11889648438	5561651.0	-81.08562601633382	-1124290.0	
762520.0	54.994184374115996	128.0	128.0	169729.09545898438	5561683.0	-81.08778966519709	-1124320.0	
761690.0	54.93432342223208	128.0	128.0	169730.07202148438	5561715.0	-81.11988379000233	-1124765.0	
762345.0	54.98156308908023	128.0	128.0	169731.04858398438	5561747.0	-81.11267162712475	-1124665.0	
762660.0	55.004281402144606	128.0	128.0	169732.02514648438	5561779.0	-81.16171433469229	-1125345.0	
762270.0	54.97615396692204	128.0	128.0	169733.00170898438	5561811.0	-81.17325379529642	-1125505.0	
762380.0	54.984087346087385	128.0	128.0	169733.97827148438	5561843.0	-81.21075704225983	-1126025.0	
762190.0	54.97038423661998	128.0	128.0	169734.95483398438	5561875.0	-81.22698440873438	-1126250.0	
762945.0	55.024836066345706	128.0	128.0	169735.93139648438	5561907.0	-81.20138123051898	-1125895.0	
763110.0	55.03673613509371	128.0	128.0	169736.90795898438	5561939.0	-81.20210244680673	-1125905.0	
762040.0	54.95956599230361	128.0	128.0	169737.88452148438	5561971.0	-81.1462081845055	-1125130.0	
762900.0	55.021590593050796	128.0	128.0	169738.86108398438	5562003.0	-81.12709595287991	-1124865.0	
763140.0	55.038899783956985	128.0	128.0	169739.83764648438	5562035.0	-81.12529291216052	-1124840.0	
762685.0	55.006084442864	128.0	128.0	169740.81420898438	5562067.0	-81.08346236747055	-1124260.0	
763490.0	55.06414235402851	128.0	128.0	169741.79077148438	5562099.0	-81.11519588413191	-1124700.0	
762280.0	54.9768751832098	128.0	128.0	169742.76733398438	5562131.0	-81.13466872390137	-1124970.0	
762350.0	54.98192369722411	128.0	128.0	169743.74389648438	5562163.0	-81.15666582067799	-1125275.0	
760835.0	54.87265942962878	128.0	128.0	169744.72045898438	5562195.0	-81.18407203961279	-1125655.0	
762035.0	54.95920538415973	128.0	128.0	169745.69702148438	5562227.0	-81.18839933733933	-1125715.0	
761785.0	54.94117497696578	128.0	128.0	169746.67358398438	5562259.0	-81.20570852824552	-1125955.0	
762305.0	54.9786782239292	128.0	128.0	169747.65014648438	5562291.0	-81.21436312369862	-1126075.0	
761875.0	54.947665923555604	128.0	128.0	169748.62670898438	5562323.0	-81.24826028922324	-1126545.0	
762205.0	54.971466061051615	128.0	128.0	169749.60327148438	5562355.0	-81.25078454623039	-1126580.0	
762725.0	55.00896930801503	128.0	128.0	169750.57983398438	5562387.0	-81.27602711630192	-1126930.0	
762955.0	55.025557282633464	128.0	128.0	169751.55639648438	5562419.0	-81.33156077045928	-1127700.0	
763240.0	55.046111946834564	128.0	128.0	169752.53295898438	5562451.0	-81.37771861287578	-1128340.0	
762305.0	54.9786782239292	128.0	128.0	169753.50952148438	5562483.0	-81.40512483181058	-1128720.0	
763315.0	55.05152106899275	128.0	128.0	169754.48608398438	5562515.0	-81.44515233578115	-1129275.0	
763060.0	55.03313005365492	128.0	128.0	169755.46264648438	5562547.0	-81.43469469960866	-1129130.0	
762300.0	54.97831761578532	128.0	128.0	169756.43920898438	5562579.0	-81.45200389051485	-1129370.0	
762900.0	55.021590593050796	128.0	128.0	169757.41577148438	5562611.0	-81.41918854942186	-1128915.0	
763280.0	55.048996811985596	128.0	128.0	169758.39233398438	5562643.0	-81.39394597935033	-1128565.0	
762160.0	54.968220587756704	128.0	128.0	169759.36889648438	5562675.0	-81.39755206078912	-1128615.0	
762510.0	54.99346315782824	128.0	128.0	169760.34545898438	5562707.0	-81.37194888257372	-1128260.0	
762305.0	54.9786782239292	128.0	128.0	169761.32202148438	5562739.0	-81.39935510150852	-1128640.0	
763585.0	55.07099390876221	128.0	128.0	169762.29858398438	5562771.0	-81.39430658749421	-1128570.0	
763450.0	55.06125748887748	128.0	128.0	169763.27514648438	5562803.0	-81.42243402271677	-1128960.0	
762265.0	54.97579335877816	128.0	128.0	169764.25170898438	5562835.0	-81.43072801002599	-1129075.0	
763355.0	55.05440593414378	128.0	128.0	169765.22827148438	5562867.0	-81.43253105074538	-1129100.0	
763255.0	55.0471937712662	128.0	128.0	169766.20483398438	5562899.0	-81.4476765927883	-1129310.0	
763175.0	55.04142404096414	128.0	128.0	169767.18139648438	5562931.0	-81.48626166418335	-1129845.0	
763315.0	55.05152106899275	128.0	128.0	169768.15795898438	5562963.0	-81.49924355736299	-1130025.0	
763365.0	55.05512715043154	128.0	128.0	169769.13452148438	5562995.0	-81.523043694859	-1130355.0	
762980.0	55.02736032335286	128.0	128.0	169770.11108398438	5563027.0	-81.53458315546312	-1130515.0	
762660.0	55.004281402144606	128.0	128.0	169771.08764648438	5563059.0	-81.55297417080095	-1130770.0	
762650.0	55.00356018585685	128.0	128.0	169772.06420898438	5563091.0	-81.62329275885735	-1131745.0	
763180.0	55.04178464910802	128.0	128.0	169773.04077148438	5563123.0	-81.64276559862681	-1132015.0	
762805.0	55.014739038317096	128.0	128.0	169774.01733398438	5563155.0	-81.66332026282791	-1132300.0	
762650.0	55.00356018585685	128.0	128.0	169774.99389648438	5563187.0	-81.67702337229531	-1132490.0	
763400.0	55.05765140743869	128.0	128.0	169775.97045898438	5563219.0	-81.64781411264111	-1132085.0	
762470.0	54.990578292677206	128.0	128.0	169776.94702148438	5563251.0	-81.65430505923094	-1132175.0	
762685.0	55.006084442864	128.0	128.0	169777.92358398438	5563283.0	-81.60273809465625	-1131460.0	
763280.0	55.048996811985596	128.0	128.0	169778.90014648438	5563315.0	-81.59191985033988	-1131310.0	
763155.0	55.03998160838862	128.0	128.0	169779.87670898438	5563347.0	-81.57533187572145	-1131080.0	
763225.0	55.04503012240293	128.0	128.0	169780.85327148438	5563379.0	-81.55766207667138	-1130835.0	
763280.0	55.048996811985596	128.0	128.0	169781.82983398438	5563411.0	-81.5641530232612	-1130925.0	
762515.0	54.99382376597212	128.0	128.0	169782.80639648438	5563443.0	-81.56703788841223	-1130965.0	
763850.0	55.090106140387796	128.0	128.0	169783.78295898438	5563475.0	-81.5710045779949	-1131020.0	
762725.0	55.00896930801503	128.0	128.0	169784.75952148438	5563507.0	-81.58001978159187	-1131145.0	
763325.0	55.05224228528051	128.0	128.0	169785.73608398438	5563539.0	-81.6052623516634	-1131495.0	
763075.0	55.03421187808656	128.0	128.0	169786.71264648438	5563571.0	-81.62221093442571	-1131730.0	
763900.0	55.093712221826586	128.0	128.0	169787.68920898438	5563603.0	-81.63230796245432	-1131870.0	
762740.0	55.01005113244667	128.0	128.0	169788.66577148438	5563635.0	-81.62725944844001	-1131800.0	
762890.0	55.02086937676304	128.0	128.0	169789.64233398438	5563667.0	-81.6532232347993	-1132160.0	
762540.0	54.99562680669151	128.0	128.0	169790.61889648438	5563699.0	-81.65286262665542	-1132155.0	
763350.0	55.0540453259999	128.0	128.0	169791.59545898438	5563731.0	-81.72245999842406	-1133120.0	
763120.0	55.03745735138147	128.0	128.0	169792.57202148438	5563763.0	-81.7610450698191	-1133655.0	
761445.0	54.916653623182015	128.0	128.0	169793.54858398438	5563795.0	-81.81729994026422	-1134435.0	
762610.0	55.00067532070582	128.0	128.0	169794.52514648438	5563827.0	-81.8126120343938	-1134370.0	
761185.0	54.89790199970031	128.0	128.0	169795.50170898438	5563859.0	-81.82343027871016	-1134520.0	
761965.0	54.954156870145425	128.0	128.0	169796.47827148438	5563891.0	-81.80251500636518	-1134230.0	
762590.0	54.9992328881303	128.0	128.0	169797.45483398438	5563923.0	-81.74986621735886	-1133500.0	
762610.0	55.00067532070582	128.0	128.0	169798.43139648438	5563955.0	-81.71344479482708	-1132995.0	
762620.0	55.001396536993575	128.0	128.0	169799.40795898438	5563987.0	-81.69000526547495	-1132670.0	
762775.0	55.01257538945382	128.0	128.0	169800.38452148438	5564019.0	-81.6413231660513	-1131995.0	
763525.0	55.066666611035664	128.0	128.0	169801.36108398438	5564051.0	-81.61608059597977	-1131645.0	
763450.0	55.06125748887748	128.0	128.0	169802.33764648438	5564083.0	-81.59011680962048	-1131285.0	
763025.0	55.03060579664777	128.0	128.0	169803.31420898438	5564115.0	-81.57244701057041	-1131040.0	
763430.0	55.059815056301964	128.0	128.0	169804.29077148438	5564147.0	-81.54612261606725	-1130675.0	
763300.0	55.05043924456111	128.0	128.0	169805.26733398438	5564179.0	-81.51258605868651	-1130210.0	
763485.0	55.06378174588463	128.0	128.0	169806.24389648438	5564211.0	-81.46967368956491	-1129615.0	
764235.0	55.117872967466475	128.0	128.0	169807.22045898438	5564243.0	-81.39214293863094	-1128540.0	
764120.0	55.10957898015726	128.0	128.0	169808.19702148438	5564275.0	-81.32326678315006	-1127585.0	
763475.0	55.063060529596875	128.0	128.0	169809.17358398438	5564307.0	-81.32831529716437	-1127655.0	
764250.0	55.11895479189811	128.0	128.0	169810.15014648438	5564339.0	-81.28864840133768	-1127105.0	
763900.0	55.093712221826586	128.0	128.0	169811.12670898438	5564371.0	-81.29622117235914	-1127210.0	
763300.0	55.05043924456111	128.0	128.0	169812.10327148438	5564403.0	-81.33516685189807	-1127750.0	
763750.0	55.08289397751022	128.0	128.0	169813.07983398438	5564435.0	-81.36942462556657	-1128225.0	
763345.0	55.05368471785602	128.0	128.0	169814.05639648438	5564467.0	-81.38529138389724	-1128445.0	
763900.0	55.093712221826586	128.0	128.0	169815.03295898438	5564499.0	-81.3842095594656	-1128430.0	
763095.0	55.035654310662075	128.0	128.0	169816.00952148438	5564531.0	-81.37880043730742	-1128355.0	
764240.0	55.118233575610354	128.0	128.0	169816.98608398438	5564563.0	-81.37122766628596	-1128250.0	
763635.0	55.074599990201	128.0	128.0	169817.96264648438	5564595.0	-81.36978523371045	-1128230.0	
763610.0	55.07279694948161	128.0	128.0	169818.93920898438	5564627.0	-81.3636548952645	-1128145.0	
763065.0	55.0334906617988	128.0	128.0	169819.91577148438	5564659.0	-81.34454266363892	-1127880.0	
764240.0	55.118233575610354	128.0	128.0	169820.89233398438	5564691.0	-81.36617915227166	-1128180.0	
763000.0	55.028802755928375	128.0	128.0	169821.86889648438	5564723.0	-81.40584604809834	-1128730.0	
763715.0	55.080369720503064	128.0	128.0	169822.84545898438	5564755.0	-81.43505530775253	-1129135.0	
763800.0	55.08650005894901	128.0	128.0	169823.82202148438	5564787.0	-81.42567949601168	-1129005.0	
763475.0	55.063060529596875	128.0	128.0	169824.79858398438	5564819.0	-81.43036740188211	-1129070.0	
763780.0	55.08505762637349	128.0	128.0	169825.77514648438	5564851.0	-81.43866138919132	-1129185.0	
763120.0	55.03745735138147	128.0	128.0	169826.75170898438	5564883.0	-81.41666429241471	-1128880.0	
763175.0	55.04142404096414	128.0	128.0	169827.72827148438	5564915.0	-81.38853685719215	-1128490.0	
763170.0	55.04106343282026	128.0	128.0	169828.70483398438	5564947.0	-81.38240651874621	-1128405.0	
763000.0	55.028802755928375	128.0	128.0	169829.68139648438	5564979.0	-81.3449032717828	-1127885.0	
763115.0	55.03709674323759	128.0	128.0	169830.65795898438	5565011.0	-81.35427908352365	-1128015.0	
763965.0	55.09840012769701	128.0	128.0	169831.63452148438	5565043.0	-81.36040942196959	-1128100.0	
763785.0	55.08541823451737	128.0	128.0	169832.61108398438	5565075.0	-81.38024286988293	-1128375.0	
763180.0	55.04178464910802	128.0	128.0	169833.58764648438	5565107.0	-81.41269760283204	-1128825.0	
763000.0	55.028802755928375	128.0	128.0	169834.56420898438	5565139.0	-81.38565199204112	-1128450.0	
763155.0	55.03998160838862	128.0	128.0	169835.54077148438	5565171.0	-81.40079753408403	-1128660.0	
763855.0	55.090466748531675	128.0	128.0	169836.51733398438	5565203.0	-81.39142172234318	-1128530.0	
763410.0	55.05837262372645	128.0	128.0	169837.49389648438	5565235.0	-81.36906401742269	-1128220.0	
762665.0	55.004642010288485	128.0	128.0	169838.47045898438	5565267.0	-81.38817624904827	-1128485.0	
763100.0	55.036014918805954	128.0	128.0	169839.44702148438	5565299.0	-81.35824577310632	-1128070.0	
762780.0	55.0129359975977	128.0	128.0	169840.42358398438	5565331.0	-81.34382144735116	-1127870.0	
762830.0	55.01654207903649	128.0	128.0	169841.40014648438	5565363.0	-81.37807922101966	-1128345.0	
763075.0	55.03421187808656	128.0	128.0	169842.37670898438	5565395.0	-81.37880043730742	-1128355.0	
762610.0	55.00067532070582	128.0	128.0	169843.35327148438	5565427.0	-81.40873091324937	-1128770.0	
761075.0	54.88996862053497	128.0	128.0	169844.32983398438	5565459.0	-81.40728848067386	-1128750.0	
762485.0	54.99166011710884	128.0	128.0	169845.30639648438	5565491.0	-81.39683084450137	-1128605.0	
761635.0	54.930356732649415	128.0	128.0	169846.28295898438	5565523.0	-81.40945212953713	-1128780.0	
762655.0	55.00392079400073	128.0	128.0	169847.25952148438	5565555.0	-81.39358537120646	-1128560.0	
762475.0	54.990938900821085	128.0	128.0	169848.23608398438	5565587.0	-81.40332179109119	-1128695.0	
763105.0	55.03637552694983	128.0	128.0	169849.21264648438	5565619.0	-81.40187935851567	-1128675.0	
763785.0	55.08541823451737	128.0	128.0	169850.18920898438	5565651.0	-81.38565199204112	-1128450.0	
762520.0	54.994184374115996	128.0	128.0	169851.16577148438	5565683.0	-81.40260057480343	-1128685.0	
762890.0	55.02086937676304	128.0	128.0	169852.14233398438	5565715.0	-81.40873091324937	-1128770.0	
762895.0	55.02122998490692	128.0	128.0	169853.11889648438	5565747.0	-81.44262807877399	-1129240.0	
763885.0	55.09263039739495	128.0	128.0	169854.09545898438	5565779.0	-81.43541591589641	-1129140.0	
764185.0	55.114266886027686	128.0	128.0	169855.07202148438	5565811.0	-81.42279463086065	-1128965.0	
763215.0	55.04430890611517	128.0	128.0	169856.04858398438	5565843.0	-81.44443111949339	-1129265.0	
763810.0	55.087221275236764	128.0	128.0	169857.02514648438	5565875.0	-81.40800969696161	-1128760.0	
762795.0	55.01401782202934	128.0	128.0	169858.00170898438	5565907.0	-81.4271219285872	-1129025.0	
763380.0	55.056208974863175	128.0	128.0	169858.97827148438	5565939.0	-81.4271219285872	-1129025.0	
763210.0	55.04394829797129	128.0	128.0	169859.95483398438	5565971.0	-81.39502780378197	-1128580.0	
762910.0	55.022311809338554	128.0	128.0	169860.93139648438	5566003.0	-81.43253105074538	-1129100.0	
762770.0	55.01221478130994	128.0	128.0	169861.90795898438	5566035.0	-81.45128267422709	-1129360.0	
763470.0	55.062699921452996	128.0	128.0	169862.88452148438	5566067.0	-81.48409801532007	-1129815.0	
763000.0	55.028802755928375	128.0	128.0	169863.86108398438	5566099.0	-81.52737099258555	-1130415.0	
763230.0	55.045390730546806	128.0	128.0	169864.83764648438	5566131.0	-81.52412551929064	-1130370.0	
762530.0	54.994905590403754	128.0	128.0	169865.81420898438	5566163.0	-81.57425005128981	-1131065.0	
763230.0	55.045390730546806	128.0	128.0	169866.79077148438	5566195.0	-81.59588653992255	-1131365.0	
762940.0	55.02447545820183	128.0	128.0	169867.76733398438	5566227.0	-81.62906248915941	-1131825.0	
762760.0	55.011493565022185	128.0	128.0	169868.74389648438	5566259.0	-81.66728695241058	-1132355.0	
763700.0	55.07928789607143	128.0	128.0	169869.72045898438	5566291.0	-81.67702337229531	-1132490.0	
762890.0	55.02086937676304	128.0	128.0	169870.69702148438	5566323.0	-81.72750851243836	-1133190.0	
762730.0	55.00932991615891	128.0	128.0	169871.67358398438	5566355.0	-81.7747481792865	-1133845.0	
763590.0	55.07135451690609	128.0	128.0	169872.65014648438	5566387.0	-81.81405446696931	-1134390.0	
762590.0	54.9992328881303	128.0	128.0	169873.62670898438	5566419.0	-81.86598203968788	-1135110.0	
763025.0	55.03060579664777	128.0	128.0	169874.60327148438	5566451.0	-81.85804866052254	-1135000.0	
763725.0	55.08109093679082	128.0	128.0	169875.57983398438	5566483.0	-81.89086400161553	-1135455.0	
763685.0	55.07820607163979	128.0	128.0	169876.55639648438	5566515.0	-81.87968514915528	-1135300.0	
763900.0	55.093712221826586	128.0	128.0	169877.53295898438	5566547.0	-81.86526082340012	-1135100.0	
762575.0	54.998151063698664	128.0	128.0	169878.50952148438	5566579.0	-81.86994872927055	-1135165.0	
762940.0	55.02447545820183	128.0	128.0	169879.48608398438	5566611.0	-81.86886690483891	-1135150.0	
762440.0	54.98841464381393	128.0	128.0	169880.46264648438	5566643.0	-81.8382152126092	-1134725.0	
762200.0	54.971105452907736	128.0	128.0	169881.43920898438	5566675.0	-81.86922751298279	-1135155.0	
762915.0	55.02267241748243	128.0	128.0	169882.41577148438	5566707.0	-81.8742760269971	-1135225.0	
763820.0	55.08794249152452	128.0	128.0	169883.39233398438	5566739.0	-81.91394292282378	-1135775.0	
762755.0	55.011132956878306	128.0	128.0	169884.36889648438	5566771.0	-81.90023981335638	-1135585.0	
763430.0	55.059815056301964	128.0	128.0	169885.34545898438	5566803.0	-81.92476116714015	-1135925.0	
762840.0	55.01726329532425	128.0	128.0	169886.32202148438	5566835.0	-81.96118258967192	-1136430.0	
763230.0	55.045390730546806	128.0	128.0	169887.29858398438	5566867.0	-81.9597401570964	-1136410.0	
762925.0	55.02339363377019	128.0	128.0	169888.27514648438	5566899.0	-81.9889494167506	-1136815.0	
763910.0	55.09443343811434	128.0	128.0	169889.25170898438	5566931.0	-82.01311016239049	-1137150.0	
763000.0	55.028802755928375	128.0	128.0	169890.22827148438	5566963.0	-82.02068293341195	-1137255.0	
763155.0	55.03998160838862	128.0	128.0	169891.20483398438	5566995.0	-82.0488103686345	-1137645.0	
764125.0	55.10993958830114	128.0	128.0	169892.18139648438	5567027.0	-82.08811665631731	-1138190.0	
763125.0	55.03781795952535	128.0	128.0	169893.15795898438	5567059.0	-82.14256848604305	-1138945.0	
762590.0	54.9992328881303	128.0	128.0	169894.13452148438	5567091.0	-82.15591098736657	-1139130.0	
761985.0	54.95559930272094	128.0	128.0	169895.11108398438	5567123.0	-82.14761700005735	-1139015.0	
762910.0	55.022311809338554	128.0	128.0	169896.08764648438	5567155.0	-82.14184726975529	-1138935.0	
762630.0	55.00211775328133	128.0	128.0	169897.06420898438	5567187.0	-82.10795010423067	-1138465.0	
762935.0	55.02411485005795	128.0	128.0	169898.04077148438	5567219.0	-82.09641064362654	-1138305.0	
763695.0	55.07892728792755	128.0	128.0	169899.01733398438	5567251.0	-82.08955908889283	-1138210.0	
762525.0	54.994544982259875	128.0	128.0	169899.99389648438	5567283.0	-82.08090449343973	-1138090.0	
763465.0	55.06233931330912	128.0	128.0	169900.97045898438	5567315.0	-82.05890739666312	-1137785.0	
763235.0	55.045751338690685	128.0	128.0	169901.94702148438	5567347.0	-82.07765902014482	-1138045.0	
763355.0	55.05440593414378	128.0	128.0	169902.92358398438	5567379.0	-82.08270753415913	-1138115.0	
763765.0	55.083975801941854	128.0	128.0	169903.90014648438	5567411.0	-82.07874084457646	-1138060.0	
763715.0	55.080369720503064	128.0	128.0	169904.87670898438	5567443.0	-82.08270753415913	-1138115.0	
763720.0	55.08073032864694	128.0	128.0	169905.85327148438	5567475.0	-82.10758949608679	-1138460.0	
763275.0	55.04863620384172	128.0	128.0	169906.82983398438	5567507.0	-82.10975314495006	-1138490.0	
764360.0	55.12688817106345	128.0	128.0	169907.80639648438	5567539.0	-82.12922598471953	-1138760.0	
762425.0	54.987332819382296	128.0	128.0	169908.78295898438	5567571.0	-82.15663220365433	-1139140.0	
764480.0	55.135542766516544	128.0	128.0	169909.75952148438	5567603.0	-82.14545335119408	-1138985.0	
762950.0	55.025196674489585	128.0	128.0	169910.73608398438	5567635.0	-82.17898990857482	-1139450.0	
763690.0	55.07856667978367	128.0	128.0	169911.71264648438	5567667.0	-82.19738092391265	-1139705.0	
763245.0	55.04647255497844	128.0	128.0	169912.68920898438	5567699.0	-82.22659018356684	-1140110.0	
763725.0	55.08109093679082	128.0	128.0	169913.66577148438	5567731.0	-82.25579944322104	-1140515.0	
764360.0	55.12688817106345	128.0	128.0	169914.64233398438	5567763.0	-82.24065390117812	-1140305.0	
763440.0	55.06053627258972	128.0	128.0	169915.61889648438	5567795.0	-82.25579944322104	-1140515.0	
763090.0	55.035293702518196	128.0	128.0	169916.59545898438	5567827.0	-82.24353876632915	-1140345.0	
763695.0	55.07892728792755	128.0	128.0	169917.57202148438	5567859.0	-82.22875383243012	-1140140.0	
764040.0	55.103809249855196	128.0	128.0	169918.54858398438	5567891.0	-82.23885086045873	-1140280.0	
762840.0	55.01726329532425	128.0	128.0	169919.52514648438	5567923.0	-82.20459308679023	-1139805.0	
763455.0	55.06161809702136	128.0	128.0	169920.50170898438	5567955.0	-82.20134761349532	-1139760.0	
763535.0	55.06738782732342	128.0	128.0	169921.47827148438	5567987.0	-82.2323599138689	-1140190.0	
764135.0	55.110660804588896	128.0	128.0	169922.45483398438	5568019.0	-82.2222628858403	-1140050.0	
763660.0	55.076403030920396	128.0	128.0	169923.43139648438	5568051.0	-82.25760248394043	-1140540.0	
763230.0	55.045390730546806	128.0	128.0	169924.40795898438	5568083.0	-82.2565206595088	-1140525.0	
763775.0	55.08469701822961	128.0	128.0	169925.38452148438	5568115.0	-82.28176322958032	-1140875.0	
763160.0	55.0403422165325	128.0	128.0	169926.36108398438	5568147.0	-82.30880884037124	-1141250.0	
763050.0	55.032408837367164	128.0	128.0	169927.33764648438	5568179.0	-82.31313613809779	-1141310.0	
763070.0	55.03385126994268	128.0	128.0	169928.31420898438	5568211.0	-82.34775451991017	-1141790.0	
763225.0	55.04503012240293	128.0	128.0	169929.29077148438	5568243.0	-82.35136060134896	-1141840.0	
764125.0	55.10993958830114	128.0	128.0	169930.26733398438	5568275.0	-82.37588195513273	-1142180.0	
763100.0	55.036014918805954	128.0	128.0	169931.24389648438	5568307.0	-82.43646412330439	-1143020.0	
763200.0	55.04322708168353	128.0	128.0	169932.22045898438	5568339.0	-82.43898838031154	-1143055.0	
762635.0	55.00247836142521	128.0	128.0	169933.19702148438	5568371.0	-82.48658865530356	-1143715.0	
763980.0	55.09948195212865	128.0	128.0	169934.17358398438	5568403.0	-82.48009770871374	-1143625.0	
763960.0	55.09803951955313	128.0	128.0	169935.15014648438	5568435.0	-82.48298257386477	-1143665.0	
763570.0	55.069912084330575	128.0	128.0	169936.12670898438	5568467.0	-82.4927189937495	-1143800.0	
763125.0	55.03781795952535	128.0	128.0	169937.10327148438	5568499.0	-82.47432797841168	-1143545.0	
764225.0	55.11715175117872	128.0	128.0	169938.07983398438	5568531.0	-82.46855824810962	-1143465.0	
763880.0	55.09226978925107	128.0	128.0	169939.05639648438	5568563.0	-82.46603399110246	-1143430.0	
763180.0	55.04178464910802	128.0	128.0	169940.03295898438	5568595.0	-82.45449453049834	-1143270.0	
762930.0	55.02375424191407	128.0	128.0	169941.00952148438	5568627.0	-82.47144311326065	-1143505.0	
763480.0	55.063421137740754	128.0	128.0	169941.98608398438	5568659.0	-82.49344021003726	-1143810.0	
762450.0	54.98913586010169	128.0	128.0	169942.96264648438	5568691.0	-82.52914041628128	-1144305.0	
761790.0	54.94153558510966	128.0	128.0	169943.93920898438	5568723.0	-82.5424829176048	-1144490.0	
761695.0	54.93468403037596	128.0	128.0	169944.91577148438	5568755.0	-82.55077690491402	-1144605.0	
762140.0	54.96677815518119	128.0	128.0	169945.89233398438	5568787.0	-82.56592244695693	-1144815.0	
762115.0	54.964975114461794	128.0	128.0	169946.86889648438	5568819.0	-82.5817892052876	-1145035.0	
762970.0	55.0266391070651	128.0	128.0	169947.84545898438	5568851.0	-82.59981961248155	-1145285.0	
762305.0	54.9786782239292	128.0	128.0	169948.82202148438	5568883.0	-82.60558934278362	-1145365.0	
763120.0	55.03745735138147	128.0	128.0	169949.79858398438	5568915.0	-82.64453502232254	-1145905.0	
762680.0	55.00572383472012	128.0	128.0	169950.77514648438	5568947.0	-82.64309258974703	-1145885.0	
762690.0	55.00644505100788	128.0	128.0	169951.75170898438	5568979.0	-82.68275948557371	-1146435.0	
762740.0	55.01005113244667	128.0	128.0	169952.72827148438	5569011.0	-82.7018717171993	-1146700.0	
763735.0	55.08181215307858	128.0	128.0	169953.70483398438	5569043.0	-82.71016570450851	-1146815.0	
764120.0	55.10957898015726	128.0	128.0	169954.68139648438	5569075.0	-82.71737786738609	-1146915.0	
763220.0	55.04466951425905	128.0	128.0	169955.65795898438	5569107.0	-82.72603246283919	-1147035.0	
763225.0	55.04503012240293	128.0	128.0	169956.63452148438	5569139.0	-82.7429810456015	-1147270.0	
763795.0	55.08613945080513	128.0	128.0	169957.61108398438	5569171.0	-82.71773847552997	-1146920.0	
763240.0	55.046111946834564	128.0	128.0	169958.58764648438	5569203.0	-82.70836266378912	-1146790.0	
763280.0	55.048996811985596	128.0	128.0	169959.56420898438	5569235.0	-82.68348070186147	-1146445.0	
763080.0	55.03457248623044	128.0	128.0	169960.54077148438	5569267.0	-82.67590793084001	-1146340.0	
763580.0	55.07063330061833	128.0	128.0	169961.51733398438	5569299.0	-82.69682320318499	-1146630.0	
763925.0	55.09551526254598	128.0	128.0	169962.49389648438	5569331.0	-82.71052631265239	-1146820.0	
763600.0	55.07207573319385	128.0	128.0	169963.47045898438	5569363.0	-82.74370226188925	-1147280.0	
762830.0	55.01654207903649	128.0	128.0	169964.44702148438	5569395.0	-82.73649009901168	-1147180.0	
763360.0	55.05476654228766	128.0	128.0	169965.42358398438	5569427.0	-82.75091442476683	-1147380.0	
762955.0	55.025557282633464	128.0	128.0	169966.40014648438	5569459.0	-82.7736327378312	-1147695.0	
764435.0	55.13229729322163	128.0	128.0	169967.37670898438	5569491.0	-82.75848719578829	-1147485.0	
763805.0	55.086860667092886	128.0	128.0	169968.35327148438	5569523.0	-82.79887530790273	-1148045.0	
764165.0	55.11282445345217	128.0	128.0	169969.32983398438	5569555.0	-82.78877827987412	-1147905.0	
763815.0	55.08758188338064	128.0	128.0	169970.30639648438	5569587.0	-82.82087240467935	-1148350.0	
764330.0	55.124724522200175	128.0	128.0	169971.28295898438	5569619.0	-82.84070585259269	-1148625.0	
763700.0	55.07928789607143	128.0	128.0	169972.25952148438	5569651.0	-82.86053930050603	-1148900.0	
764240.0	55.118233575610354	128.0	128.0	169973.23608398438	5569683.0	-82.89443646603065	-1149370.0	
763660.0	55.076403030920396	128.0	128.0	169974.21264648438	5569715.0	-82.90200923705211	-1149475.0	
764055.0	55.10489107428683	128.0	128.0	169975.18920898438	5569747.0	-82.88866673572859	-1149290.0	
764550.0	55.14059128053085	128.0	128.0	169976.16577148438	5569779.0	-82.89623950675005	-1149395.0	
763215.0	55.04430890611517	128.0	128.0	169977.14233398438	5569811.0	-82.89696072303781	-1149405.0	
763940.0	55.09659708697762	128.0	128.0	169978.11889648438	5569843.0	-82.8800121402755	-1149170.0	
763045.0	55.032048229223285	128.0	128.0	169979.09545898438	5569875.0	-82.85693321906724	-1148850.0	
763450.0	55.06125748887748	128.0	128.0	169980.07202148438	5569907.0	-82.85044227247742	-1148760.0	
763460.0	55.06197870516524	128.0	128.0	169981.04858398438	5569939.0	-82.83277247342735	-1148515.0	
763440.0	55.06053627258972	128.0	128.0	169982.02514648438	5569971.0	-82.85657261092337	-1148845.0	
762825.0	55.01618147089261	128.0	128.0	169983.00170898438	5570003.0	-82.86017869236215	-1148895.0	
764215.0	55.11643053489096	128.0	128.0	169983.97827148438	5570035.0	-82.86270294936931	-1148930.0	
763640.0	55.07496059834488	128.0	128.0	169984.95483398438	5570067.0	-82.88542126243368	-1149245.0	
763565.0	55.069551476186696	128.0	128.0	169985.93139648438	5570099.0	-82.8731605855418	-1149075.0	
764125.0	55.10993958830114	128.0	128.0	169986.90795898438	5570131.0	-82.90345166962763	-1149495.0	
763475.0	55.063060529596875	128.0	128.0	169987.88452148438	5570163.0	-82.90236984519599	-1149480.0	
763605.0	55.07243634133773	128.0	128.0	169988.86108398438	5570195.0	-82.90453349405927	-1149510.0	
763635.0	55.074599990201	128.0	128.0	169989.83764648438	5570227.0	-82.93410336185734	-1149920.0	
763970.0	55.09876073584089	128.0	128.0	169990.81420898438	5570259.0	-82.93626701072061	-1149950.0	
763115.0	55.03709674323759	128.0	128.0	169991.79077148438	5570291.0	-82.97196721696463	-1150445.0	
762665.0	55.004642010288485	128.0	128.0	169992.76733398438	5570323.0	-83.0170432349495	-1151070.0	
762460.0	54.98985707638945	128.0	128.0	169993.74389648438	5570355.0	-83.02173114081992	-1151135.0	
761065.0	54.889247404247214	128.0	128.0	169994.72045898438	5570387.0	-83.0375978991506	-1151355.0	
762585.0	54.99887227998642	128.0	128.0	169995.69702148438	5570419.0	-83.0170432349495	-1151070.0	
762690.0	55.00644505100788	128.0	128.0	169996.67358398438	5570451.0	-82.99360370559737	-1150745.0	
762090.0	54.9631720737424	128.0	128.0	169997.65014648438	5570483.0	-82.95898532378499	-1150265.0	
763430.0	55.059815056301964	128.0	128.0	169998.62670898438	5570515.0	-82.94708525503698	-1150100.0	
762655.0	55.00392079400073	128.0	128.0	169999.60327148438	5570547.0	-82.94420038988595	-1150060.0	
763395.0	55.05729079929481	128.0	128.0	170000.57983398438	5570579.0	-82.93338214556958	-1149910.0	
763095.0	55.035654310662075	128.0	128.0	170001.55639648438	5570611.0	-82.94275795731043	-1150040.0	
763030.0	55.03096640479165	128.0	128.0	170002.53295898438	5570643.0	-82.96475505408705	-1150345.0	
763410.0	55.05837262372645	128.0	128.0	170003.50952148438	5570675.0	-82.94816707946862	-1150115.0	
763255.0	55.0471937712662	128.0	128.0	170004.48608398438	5570707.0	-82.97016417624523	-1150420.0	
763870.0	55.09154857296331	128.0	128.0	170005.46264648438	5570739.0	-82.9741308658279	-1150475.0	
763610.0	55.07279694948161	128.0	128.0	170006.43920898438	5570771.0	-82.98891579972694	-1150680.0	
