Timestamp,ECG_EMG_Status1,EMG_CH1_24BIT,EMG_CH2_24BIT,Batt_Percentage,Packet_Reception_Rate_Current,Packet_Reception_Rate_Trial,System_Timestamp,null,
430816.0095214844,128.0,1.2931408039499288,54.865447266751204,89.97300884791184,0.0,100.0,1.524649373792E12,0.0,
430816.9860839844,128.0,1.4352204126382366,54.91701423132589,89.97300884791184,0.0,100.0,1.524649373792E12,0.0,
430817.9626464844,128.0,1.448923522105637,54.817125775471425,89.97300884791184,0.0,100.0,1.524649373793E12,0.0,
430818.9392089844,128.0,1.3890625702217305,54.84200773739907,89.97300884791184,0.0,100.0,1.524649373793E12,0.0,
430819.9157714844,128.0,1.0940851085287462,54.70858272416386,89.97300884791184,0.0,100.0,1.524649373796E12,0.0,
430820.8923339844,128.0,0.791174267670425,54.64980359671159,89.97300884791184,0.0,100.0,1.524649373797E12,0.0,
430821.8688964844,128.0,0.4327297726547447,54.70245238571792,89.97300884791184,0.0,100.0,1.524649373797E12,0.0,
430822.8454589844,128.0,0.17128886834250312,54.666391571330024,89.97300884791184,0.0,100.0,1.524649373798E12,0.0,
430823.8220214844,128.0,0.13919474353727623,54.73743137567418,89.97300884791184,0.0,100.0,1.524649373798E12,0.0,
430824.7985839844,128.0,0.16119184031389241,54.676127991214756,89.97300884791184,0.0,100.0,1.524649373799E12,0.0,
430825.7751464844,128.0,0.16155244845777136,54.758346648019156,89.97300884791184,0.0,100.0,1.524649373816E12,0.0,
430826.7517089844,128.0,0.17705859864456638,54.72877678022108,89.97300884791184,0.0,100.0,1.524649373817E12,0.0,
430827.7282714844,128.0,0.15542211001182915,54.6822583296607,89.97300884791184,0.0,100.0,1.524649373817E12,0.0,
430828.7048339844,128.0,0.16407670546492403,54.7626739457457,89.97300884791184,0.0,100.0,1.524649373818E12,0.0,
430829.6813964844,128.0,0.24845901113259927,54.74716779555891,89.97300884791184,0.0,100.0,1.524649373818E12,0.0,
430830.6579589844,128.0,0.2780288789306735,54.800177192709114,89.97300884791184,0.0,100.0,1.524649373819E12,0.0,
430831.6345214844,128.0,0.305435097865474,54.748610228134424,89.97300884791184,0.0,100.0,1.524649373819E12,0.0,
430832.6110839844,128.0,0.3227442887716638,54.78214678551517,89.97300884791184,0.0,100.0,1.524649373821E12,0.0,
430833.5876464844,128.0,0.5337000529408519,54.80053780085299,89.97300884791184,0.0,100.0,1.524649373821E12,0.0,
430834.5642089844,128.0,0.8838505606473162,54.8535471980032,89.97300884791184,0.0,100.0,1.524649373823E12,0.0,
430835.5407714844,128.0,1.1795492386280584,54.864726050463446,89.97300884791184,0.0,100.0,1.524649373823E12,0.0,
430836.5173339844,128.0,1.3901443946533674,54.937208287383115,89.97300884791184,0.0,100.0,1.524649373824E12,0.0,
430837.4938964844,128.0,1.4492841302495159,54.782868001802925,89.97300884791184,0.0,100.0,1.524649373824E12,0.0,
430838.4704589844,128.0,1.4348598044943577,54.80234084157239,89.97300884791184,0.0,100.0,1.524649373825E12,0.0,
430839.4470214844,128.0,1.2480647859650595,54.768804284191646,89.97300884791184,0.0,100.0,1.524649373825E12,0.0,
430840.4235839844,128.0,0.9379417822291592,54.71146758931489,89.97300884791184,0.0,100.0,1.524649373826E12,0.0,
430841.4001464844,128.0,0.6040186409972479,54.58164865751847,89.97300884791184,0.0,100.0,1.524649373826E12,0.0,
430842.3767089844,128.0,0.23078921208253053,54.594269942554234,89.97300884791184,0.0,100.0,1.524649373827E12,0.0,
430843.3532714844,128.0,0.14316143311994473,54.64763994784832,89.97300884791184,0.0,100.0,1.524649373844E12,0.0,
430844.3298339844,128.0,0.15325846114855543,54.700649344998524,89.97300884791184,0.0,100.0,1.524649373844E12,0.0,
430845.3063964844,128.0,0.16155244845777136,54.69884630427913,89.97300884791184,0.0,100.0,1.524649373845E12,0.0,
430846.2829589844,128.0,0.1792222475078401,54.703534210149556,89.97300884791184,0.0,100.0,1.524649373845E12,0.0,
430847.2595214844,128.0,0.1557827181557081,54.648721772279956,89.97300884791184,0.0,100.0,1.524649373845E12,0.0,
430848.2360839844,128.0,0.15794636701898182,54.676488599358635,89.97300884791184,0.0,100.0,1.524649373856E12,0.0,
430849.2126464844,128.0,0.2051860338671248,54.7233676580629,89.97300884791184,0.0,100.0,1.524649373857E12,0.0,
430850.1892089844,128.0,0.26757124275818384,54.70245238571792,89.97300884791184,0.0,100.0,1.524649373857E12,0.0,
430851.1657714844,128.0,0.29353502911746854,54.66350670617899,89.97300884791184,0.0,100.0,1.524649373857E12,0.0,
430852.1423339844,128.0,0.31697455846960054,54.6000396728563,89.97300884791184,0.0,100.0,1.524649373858E12,0.0,
430853.1188964844,128.0,0.39270226868418084,54.70569785901283,89.97300884791184,0.0,100.0,1.524649373858E12,0.0,
430854.0954589844,128.0,0.7305920994987607,54.70137056128628,89.97300884791184,0.0,100.0,1.524649373859E12,0.0,
430855.0720214844,128.0,1.0457636172489664,54.772410365630435,89.97300884791184,0.0,100.0,1.524649373859E12,0.0,
430856.0485839844,128.0,1.3104499948561186,54.80594692301118,89.97300884791184,0.0,100.0,1.524649373859E12,0.0,
430857.0251464844,128.0,1.4384658859331474,54.78070435293965,89.97300884791184,0.0,100.0,1.52464937386E12,0.0,
430858.0017089844,128.0,1.4460386569546053,54.755101174724246,89.97300884791184,0.0,100.0,1.52464937386E12,0.0,
430858.9782714844,128.0,1.3847352724951831,54.75726482358752,89.97300884791184,0.0,100.0,1.52464937386E12,0.0,
430859.9548339844,128.0,1.072809228039888,54.755461782868124,89.97300884791184,0.0,100.0,1.524649373861E12,0.0,
430860.9313964844,128.0,0.7706196034693246,54.6256428510717,89.97300884791184,0.0,100.0,1.524649373861E12,0.0,
430861.9079589844,128.0,0.40243868856891263,54.60544879501448,89.97300884791184,0.0,100.0,1.524649373862E12,0.0,
430862.8845214844,128.0,0.164437313608803,54.62924893251049,89.97300884791184,0.0,100.0,1.524649373862E12,0.0,
430863.8610839844,128.0,0.14424325755158157,54.618070080050245,89.97300884791184,0.0,100.0,1.524649373863E12,0.0,
430864.8376464844,128.0,0.15434028558019228,54.717958535904714,89.97300884791184,0.0,100.0,1.524649373863E12,0.0,
430865.8142089844,128.0,0.1698464357669873,54.71146758931489,89.97300884791184,0.0,100.0,1.524649373864E12,0.0,
430866.7907714844,128.0,0.17741920678844533,54.65809758402081,89.97300884791184,0.0,100.0,1.524649373864E12,0.0,
430867.7673339844,128.0,0.15614332629958705,54.71579488704144,89.97300884791184,0.0,100.0,1.524649373865E12,0.0,
430868.7438964844,128.0,0.17705859864456638,54.70533725086895,89.97300884791184,0.0,100.0,1.524649373865E12,0.0,
430869.7204589844,128.0,0.25242570071526776,54.76700124347225,89.97300884791184,0.0,100.0,1.524649373865E12,0.0,
430870.6970214844,128.0,0.2866834743837684,54.70461603458119,89.97300884791184,0.0,100.0,1.524649373866E12,0.0,
430871.6735839844,128.0,0.30795935487262666,54.76051029688243,89.97300884791184,0.0,100.0,1.524649373866E12,0.0,
430872.6501464844,128.0,0.32671097835433227,54.7147130626098,89.97300884791184,0.0,100.0,1.524649373866E12,0.0,
430873.6267089844,128.0,0.5690396510409893,54.799816584565235,89.97300884791184,0.0,100.0,1.524649373867E12,0.0,
430874.6032714844,128.0,0.9188295506035746,54.851383549139925,89.97300884791184,0.0,100.0,1.524649373867E12,0.0,
430875.5798339844,128.0,1.2123645797210432,54.90186868928298,89.97300884791184,0.0,100.0,1.524649373867E12,0.0,
430876.5563964844,128.0,1.3969959493870676,54.810634828881604,89.97300884791184,0.0,100.0,1.524649373867E12,0.0,
430877.5329589844,128.0,1.456135684983216,54.88311706580127,89.97300884791184,0.0,100.0,1.524649373868E12,0.0,
430878.5095214844,128.0,1.4384658859331474,54.78214678551517,89.97300884791184,0.0,100.0,1.524649373868E12,0.0,
430879.4860839844,128.0,1.2343616764976593,54.69884630427913,89.97300884791184,0.0,100.0,1.524649373868E12,0.0,
430880.4626464844,128.0,0.9170265098841799,54.75618299915588,89.97300884791184,0.0,100.0,1.524649373869E12,0.0,
430881.4392089844,128.0,0.5769730302063263,54.65773697587693,89.97300884791184,0.0,100.0,1.52464937387E12,0.0,
430882.4157714844,128.0,0.219249751478404,54.69812508799137,89.97300884791184,0.0,100.0,1.524649373871E12,0.0,
430883.3923339844,128.0,0.14352204126382367,54.74969205256606,89.97300884791184,0.0,100.0,1.524649373872E12,0.0,
430884.3688964844,128.0,0.1510948122852817,54.68514319481173,89.97300884791184,0.0,100.0,1.524649373872E12,0.0,
430885.3454589844,128.0,0.1629948810332872,54.755101174724246,89.97300884791184,0.0,100.0,1.524649373873E12,0.0,
430886.3220214844,128.0,0.17814042307620326,54.73057982094048,89.97300884791184,0.0,100.0,1.524649373873E12,0.0,
430887.2985839844,128.0,0.15686454258734497,54.69271596583319,89.97300884791184,0.0,100.0,1.524649373874E12,0.0,
430888.2751464844,128.0,0.1557827181557081,54.71218880560265,89.97300884791184,0.0,100.0,1.524649373874E12,0.0,
430889.2517089844,128.0,0.21564367003961446,54.69632204727198,89.97300884791184,0.0,100.0,1.524649373874E12,0.0,
430890.2282714844,128.0,0.27911070336231036,54.75798603987528,89.97300884791184,0.0,100.0,1.524649373875E12,0.0,
430891.2048339844,128.0,0.305074489721595,54.755461782868124,89.97300884791184,0.0,100.0,1.524649373875E12,0.0,
430892.1813964844,128.0,0.3173351666134795,54.693076573977066,89.97300884791184,0.0,100.0,1.524649373875E12,0.0,
430893.1579589844,128.0,0.4085690270148548,54.81820759990306,89.97300884791184,0.0,100.0,1.524649373876E12,0.0,
430894.1345214844,128.0,0.7626862243039876,54.78431043437844,89.97300884791184,0.0,100.0,1.524649373876E12,0.0,
430895.1110839844,128.0,1.0746122687592827,54.837319831528646,89.97300884791184,0.0,100.0,1.524649373877E12,0.0,
430896.0876464844,128.0,1.3331683079204928,54.88419889023291,89.97300884791184,0.0,100.0,1.524649373877E12,0.0,
430897.0642089844,128.0,1.4442356162352106,54.868692740046114,89.97300884791184,0.0,100.0,1.524649373877E12,0.0,
430898.0407714844,128.0,1.4496447383933948,54.79440746240705,89.97300884791184,0.0,100.0,1.524649373877E12,0.0,
430899.0173339844,128.0,1.3670654734451144,54.76159212131407,89.97300884791184,0.0,100.0,1.524649373877E12,0.0,
430899.9938964844,128.0,1.04792726611224,54.65016420485547,89.97300884791184,0.0,100.0,1.52464937392E12,0.0,
430900.9704589844,128.0,0.7399679112396135,54.56037277702961,89.97300884791184,0.0,100.0,1.52464937392E12,0.0,
430901.9470214844,128.0,0.35952631944731706,54.552439397864276,89.97300884791184,0.0,100.0,1.52464937392E12,0.0,
430902.9235839844,128.0,0.1597494077383766,54.60689122759,89.97300884791184,0.0,100.0,1.524649373921E12,0.0,
430903.9001464844,128.0,0.14280082497606575,54.604727578726724,89.97300884791184,0.0,100.0,1.524649373921E12,0.0,
430904.8767089844,128.0,0.16551913804043986,54.63321562209316,89.97300884791184,0.0,100.0,1.524649373921E12,0.0,
430905.8532714844,128.0,0.1738131253496558,54.713631238178166,89.97300884791184,0.0,100.0,1.524649373925E12,0.0,
430906.8298339844,128.0,0.1738131253496558,54.58886082039605,89.97300884791184,0.0,100.0,1.524649373925E12,0.0,
430907.8063964844,128.0,0.15830697516286077,54.666391571330024,89.97300884791184,0.0,100.0,1.524649373925E12,0.0,
430908.7829589844,128.0,0.1817465045149928,54.700649344998524,89.97300884791184,0.0,100.0,1.524649373926E12,0.0,
430909.7595214844,128.0,0.2639651613193943,54.67071886905657,89.97300884791184,0.0,100.0,1.524649373926E12,0.0,
430910.7360839844,128.0,0.29173198839807374,54.76483759460898,89.97300884791184,0.0,100.0,1.524649373934E12,0.0,
430911.7126464844,128.0,0.31300786888693205,54.68261893780458,89.97300884791184,0.0,100.0,1.524649373934E12,0.0,
430912.6892089844,128.0,0.3389716552462167,54.700288736854645,89.97300884791184,0.0,100.0,1.524649373934E12,0.0,
430913.6657714844,128.0,0.6018549921339741,54.844171386262346,89.97300884791184,0.0,100.0,1.524649373934E12,0.0,
430914.6423339844,128.0,0.9509236754088015,54.78394982623456,89.97300884791184,0.0,100.0,1.524649373934E12,0.0,
430915.6188964844,128.0,1.2480647859650595,54.92062031276468,89.97300884791184,0.0,100.0,1.524649373935E12,0.0,
430916.5954589844,128.0,1.4200748705953206,54.76988610862328,89.97300884791184,0.0,100.0,1.524649373949E12,0.0,
430917.5720214844,128.0,1.456856901270974,54.7832286099468,89.97300884791184,0.0,100.0,1.524649373949E12,0.0,
430918.5485839844,128.0,1.4402689266525421,54.79476807055093,89.97300884791184,0.0,100.0,1.524649373949E12,0.0,
430919.5251464844,128.0,1.2083978901383747,54.75726482358752,89.97300884791184,0.0,100.0,1.524649373949E12,0.0,
430920.5017089844,128.0,0.9015203596973849,54.70894333230774,89.97300884791184,0.0,100.0,1.524649373949E12,0.0,
430921.4782714844,128.0,0.5524516764225574,54.658818800308566,89.97300884791184,0.0,100.0,1.52464937395E12,0.0,
430922.4548339844,128.0,0.20338299314773003,54.649082380423835,89.97300884791184,0.0,100.0,1.52464937395E12,0.0,
430923.4313964844,128.0,0.15145542042916066,54.69487961469646,89.97300884791184,0.0,100.0,1.52464937395E12,0.0,
430924.4079589844,128.0,0.15361906929243438,54.63682170353195,89.97300884791184,0.0,100.0,1.52464937395E12,0.0,
430925.3845214844,128.0,0.1730919090618979,54.76736185161613,89.97300884791184,0.0,100.0,1.52464937395E12,0.0,
430926.3610839844,128.0,0.1857131940976613,54.679734072653545,89.97300884791184,0.0,100.0,1.52464937395E12,0.0,
430927.3376464844,128.0,0.15794636701898182,54.65340967815038,89.97300884791184,0.0,100.0,1.524649373951E12,0.0,
430928.3142089844,128.0,0.16804339504759253,54.799816584565235,89.97300884791184,0.0,100.0,1.524649373961E12,0.0,
430929.2907714844,128.0,0.22898617136313576,54.7028129938618,89.97300884791184,0.0,100.0,1.524649373961E12,0.0,
430930.2673339844,128.0,0.2801925277939472,54.748249619990546,89.97300884791184,0.0,100.0,1.524649373962E12,0.0,
430931.2438964844,128.0,0.30255023271444237,54.687306843675,89.97300884791184,0.0,100.0,1.524649373962E12,0.0,
430932.2204589844,128.0,0.3241867213471796,54.75005266070994,89.97300884791184,0.0,100.0,1.524649373962E12,0.0,
430933.1970214844,128.0,0.43633585409353426,54.810274220737725,89.97300884791184,0.0,100.0,1.524649373962E12,0.0,
430934.1735839844,128.0,0.8009106875551567,54.7850316506662,89.97300884791184,0.0,100.0,1.524649373966E12,0.0,
430935.1501464844,128.0,1.1005760551185675,54.824337938349004,89.97300884791184,0.0,100.0,1.524649373966E12,0.0,
430936.1267089844,128.0,1.3508381069705615,54.89682017526867,89.97300884791184,0.0,100.0,1.524649373967E12,0.0,
430937.1032714844,128.0,1.456856901270974,54.77781948778862,89.97300884791184,0.0,100.0,1.524649373967E12,0.0,
430938.0798339844,128.0,1.4536114279760632,54.817125775471425,89.97300884791184,0.0,100.0,1.524649373967E12,0.0,
430939.0563964844,128.0,1.3558866209848668,54.778901312220256,89.97300884791184,0.0,100.0,1.524649373969E12,0.0,
430940.0329589844,128.0,1.0291756426305345,54.76123151317019,89.97300884791184,0.0,100.0,1.524649373969E12,0.0,
430941.0095214844,128.0,0.7140041248803288,54.655573327013656,89.97300884791184,0.0,100.0,1.524649373969E12,0.0,
430941.9860839844,128.0,0.34005347967785354,54.60580940315836,89.97300884791184,0.0,100.0,1.524649373969E12,0.0,
430942.9626464844,128.0,0.15217663671691856,54.699928128710766,89.97300884791184,0.0,100.0,1.524649373969E12,0.0,
430943.9392089844,128.0,0.1456856901270974,54.597154807705266,89.97300884791184,0.0,100.0,1.52464937397E12,0.0,
430944.9157714844,128.0,0.16551913804043986,54.74969205256606,89.97300884791184,0.0,100.0,1.524649373992E12,0.0,
430945.8923339844,128.0,0.17453434163741371,54.710746373027135,89.97300884791184,0.0,100.0,1.524649373993E12,0.0,
430946.8688964844,128.0,0.17164947648638207,54.69163414140155,89.97300884791184,0.0,100.0,1.524649373993E12,0.0,
430947.8454589844,128.0,0.1597494077383766,54.74103745711297,89.97300884791184,0.0,100.0,1.524649373993E12,0.0,
430948.8220214844,128.0,0.18210711265887175,54.64836116413608,89.97300884791184,0.0,100.0,1.524649373993E12,0.0,
430949.7985839844,128.0,0.2679318509020628,54.7028129938618,89.97300884791184,0.0,100.0,1.524649373993E12,0.0,
430950.7751464844,128.0,0.2895683395348,54.60040028100018,89.97300884791184,0.0,100.0,1.524649374002E12,0.0,
430951.7517089844,128.0,0.31300786888693205,54.57515771092865,89.97300884791184,0.0,100.0,1.524649374003E12,0.0,
430952.7282714844,128.0,0.3317594923686376,54.621315553345156,89.97300884791184,0.0,100.0,1.524649374003E12,0.0,
430953.7048339844,128.0,0.6274581703493799,54.68261893780458,89.97300884791184,0.0,100.0,1.524649374003E12,0.0,
430954.6813964844,128.0,0.9693146907466282,54.7763770552131,89.97300884791184,0.0,100.0,1.524649374003E12,0.0,
430955.6579589844,128.0,1.2567193814181545,54.812437869601,89.97300884791184,0.0,100.0,1.524649374003E12,0.0,
430956.6345214844,128.0,1.4272870334728998,54.81965003247858,89.97300884791184,0.0,100.0,1.524649374044E12,0.0,
430957.6110839844,128.0,1.464069064148553,54.7352677268109,89.97300884791184,0.0,100.0,1.524649374044E12,0.0,
430958.5876464844,128.0,1.4308931149116892,54.778901312220256,89.97300884791184,0.0,100.0,1.524649374044E12,0.0,
430959.5642089844,128.0,1.1770249816209057,54.711106981171014,89.97300884791184,0.0,100.0,1.524649374044E12,0.0,
430960.5407714844,128.0,0.8697868430360369,54.700649344998524,89.97300884791184,0.0,100.0,1.524649374045E12,0.0,
430961.5173339844,128.0,0.5257666737755149,54.62960954065437,89.97300884791184,0.0,100.0,1.524649374045E12,0.0,
430962.4938964844,128.0,0.19076170811196663,54.61987312076964,89.97300884791184,0.0,100.0,1.524649374045E12,0.0,
430963.4704589844,128.0,0.14135839240054995,54.68478258666785,89.97300884791184,0.0,100.0,1.524649374045E12,0.0,
430964.4470214844,128.0,0.14712812270261322,54.65809758402081,89.97300884791184,0.0,100.0,1.524649374045E12,0.0,
430965.4235839844,128.0,0.17092826019862417,54.67865224822191,89.97300884791184,0.0,100.0,1.524649374045E12,0.0,
430966.4001464844,128.0,0.18030407193947698,54.72553130692617,89.97300884791184,0.0,100.0,1.524649374046E12,0.0,
430967.3767089844,128.0,0.15361906929243438,54.71867975219247,89.97300884791184,0.0,100.0,1.524649374046E12,0.0,
430968.3532714844,128.0,0.17056765205474522,54.68478258666785,89.97300884791184,0.0,100.0,1.524649374046E12,0.0,
430969.3298339844,128.0,0.22790434693149889,54.78863773210499,89.97300884791184,0.0,100.0,1.524649374046E12,0.0,
430970.3063964844,128.0,0.28127435222558406,54.7284161720772,89.97300884791184,0.0,100.0,1.524649374046E12,0.0,
430971.2829589844,128.0,0.305435097865474,54.765919419040614,89.97300884791184,0.0,100.0,1.524649374047E12,0.0,
430972.2595214844,128.0,0.3263503702104533,54.74356171412012,89.97300884791184,0.0,100.0,1.524649374047E12,0.0,
430973.2360839844,128.0,0.4651845056038506,54.792604421687656,89.97300884791184,0.0,100.0,1.524649374047E12,0.0,
430974.2126464844,128.0,0.8272350820583203,54.89032922867885,89.97300884791184,0.0,100.0,1.524649374047E12,0.0,
430975.1892089844,128.0,1.1312277473482786,54.84525321069398,89.97300884791184,0.0,100.0,1.524649374047E12,0.0,
430976.1657714844,128.0,1.3674260815889934,54.87662611921145,89.97300884791184,0.0,100.0,1.524649374047E12,0.0,
430977.1423339844,128.0,1.4597417664220056,54.84633503512562,89.97300884791184,0.0,100.0,1.524649374048E12,0.0,
430978.1188964844,128.0,1.4579387257026108,54.76483759460898,89.97300884791184,0.0,100.0,1.524649374048E12,0.0,
430979.0954589844,128.0,1.3378562137909191,54.834074358233735,89.97300884791184,0.0,100.0,1.524649374048E12,0.0,
430980.0720214844,128.0,1.0136694924437395,54.717958535904714,89.97300884791184,0.0,100.0,1.524649374048E12,0.0,
430981.0485839844,128.0,0.6887615548088021,54.64944298856771,89.97300884791184,0.0,100.0,1.524649374048E12,0.0,
430982.0251464844,128.0,0.30471388157771606,54.6411490012585,89.97300884791184,0.0,100.0,1.524649374048E12,0.0,
430983.0017089844,128.0,0.1510948122852817,54.652327853718745,89.97300884791184,0.0,100.0,1.524649374049E12,0.0,
430983.9782714844,128.0,0.148570555278129,54.69812508799137,89.97300884791184,0.0,100.0,1.524649374049E12,0.0,
430984.9548339844,128.0,0.16696157061595568,54.76159212131407,89.97300884791184,0.0,100.0,1.524649374049E12,0.0,
430985.9313964844,128.0,0.1785010312200822,54.738513200105814,89.97300884791184,0.0,100.0,1.524649374049E12,0.0,
430986.9079589844,128.0,0.17561616606905056,54.68189772151682,89.97300884791184,17.08984375,100.0,1.524649374049E12,0.0,
430987.8845214844,128.0,0.1651585298965609,54.676127991214756,89.97300884791184,17.08984375,100.0,1.52464937405E12,0.0,
430988.8610839844,128.0,0.19436778955075618,54.700649344998524,89.97300884791184,17.08984375,100.0,1.52464937405E12,0.0,
430989.8376464844,128.0,0.2718985404847313,54.6804552889413,89.97300884791184,17.08984375,100.0,1.52464937405E12,0.0,
430990.8142089844,128.0,0.29750171870013703,54.74284049783236,89.97300884791184,17.08984375,100.0,1.52464937405E12,0.0,
430991.7907714844,128.0,0.31913820733287424,54.724088874350656,89.97300884791184,17.08984375,100.0,1.52464937405E12,0.0,
430992.7673339844,128.0,0.3544778054330117,54.765919419040614,89.97300884791184,17.08984375,100.0,1.52464937405E12,0.0,
430993.7438964844,128.0,0.665682633600549,54.82541976278064,89.97300884791184,17.08984375,100.0,1.524649374051E12,0.0,
430994.7204589844,128.0,1.0039330725590079,54.803062057860146,89.97300884791184,17.08984375,100.0,1.524649374051E12,0.0,
430995.6970214844,128.0,1.2891741143672604,54.85895632016138,89.97300884791184,17.08984375,100.0,1.524649374051E12,0.0,
430996.6735839844,128.0,1.4525296035444264,54.82181368134185,89.97300884791184,17.08984375,100.0,1.524649374051E12,0.0,
430997.6501464844,128.0,1.480296430623106,54.81820759990306,89.97300884791184,17.08984375,100.0,1.524649374051E12,0.0,
430998.6267089844,128.0,1.4276476416167787,54.7832286099468,89.97300884791184,17.08984375,100.0,1.524649374051E12,0.0,
430999.6032714844,128.0,1.1604370070024739,54.62888832436661,89.97300884791184,17.08984375,100.0,1.524649374052E12,0.0,
431000.5798339844,128.0,0.8510352195543313,54.59931845656854,89.97300884791184,17.08984375,100.0,1.524649374052E12,0.0,
431001.5563964844,128.0,0.49691802226519854,54.51926344862741,89.97300884791184,17.08984375,100.0,1.524649374052E12,0.0,
431002.5329589844,128.0,0.18427076152214547,54.54811210013773,89.97300884791184,17.08984375,100.0,1.524649374052E12,0.0,
431003.5095214844,128.0,0.1510948122852817,54.638264136107466,89.97300884791184,17.08984375,100.0,1.524649374052E12,0.0,
431004.4860839844,128.0,0.16948582762310835,54.679734072653545,89.97300884791184,17.08984375,100.0,1.524649374052E12,0.0,
431005.4626464844,128.0,0.1698464357669873,54.67504616678312,89.97300884791184,17.08984375,100.0,1.524649374053E12,0.0,
431006.4392089844,128.0,0.19040109996808768,54.68261893780458,89.97300884791184,17.08984375,100.0,1.524649374053E12,0.0,
431007.4157714844,128.0,0.16263427288940824,54.64655812341668,89.97300884791184,17.08984375,100.0,1.524649374053E12,0.0,
431008.3923339844,128.0,0.17164947648638207,54.69776447984749,89.97300884791184,17.08984375,100.0,1.524649374053E12,0.0,
431009.3688964844,128.0,0.2466559704132045,54.676127991214756,89.97300884791184,17.08984375,100.0,1.524649374053E12,0.0,
431010.3454589844,128.0,0.2920925965419527,54.75329813400485,89.97300884791184,17.08984375,100.0,1.524649374054E12,0.0,
431011.3220214844,128.0,0.313368477030811,54.68442197852397,89.97300884791184,17.08984375,100.0,1.524649374054E12,0.0,
431012.2985839844,128.0,0.3335625330880324,54.778901312220256,89.97300884791184,17.08984375,100.0,1.524649374054E12,0.0,
431013.2751464844,128.0,0.49367254897028795,54.840925912967435,89.97300884791184,17.08984375,100.0,1.524649374054E12,0.0,
431014.2517089844,128.0,0.8582473824319103,54.827222803500035,89.97300884791184,17.08984375,100.0,1.524649374054E12,0.0,
431015.2282714844,128.0,1.1636824802973844,54.89754139155643,89.97300884791184,17.08984375,100.0,1.524649374054E12,0.0,
431016.2048339844,128.0,1.3836534480635463,54.80486509857954,89.97300884791184,17.08984375,100.0,1.524649374055E12,0.0,
431017.1813964844,128.0,1.472363051457769,54.88636253909618,89.97300884791184,17.08984375,100.0,1.524649374055E12,0.0,
431018.1579589844,128.0,1.4611841989975214,54.86364422603181,89.97300884791184,17.08984375,100.0,1.524649374055E12,0.0,
431019.1345214844,128.0,1.3205470228847294,54.7078615078761,89.97300884791184,17.08984375,100.0,1.524649374055E12,0.0,
431020.1110839844,128.0,0.9992451666885814,54.693797790264824,89.97300884791184,17.08984375,100.0,1.524649374055E12,0.0,
431021.0876464844,128.0,0.6685674987515806,54.70894333230774,89.97300884791184,17.08984375,100.0,1.524649374055E12,0.0,
431022.0642089844,128.0,0.2906501639664369,54.62672467550334,89.97300884791184,17.08984375,100.0,1.524649374056E12,0.0,
431023.0407714844,128.0,0.15758575887510287,54.71904036033635,89.97300884791184,17.08984375,100.0,1.524649374056E12,0.0,
431024.0173339844,128.0,0.1550615018679502,54.67107947720045,89.97300884791184,17.08984375,100.0,1.524649374056E12,0.0,
431024.9938964844,128.0,0.17453434163741371,54.696682655415856,89.97300884791184,17.08984375,100.0,1.524649374072E12,0.0,
431025.9704589844,128.0,0.18751623481705604,54.765558810896735,89.97300884791184,17.08984375,100.0,1.524649374073E12,0.0,
431026.9470214844,128.0,0.17597677421292954,54.62239737777679,89.97300884791184,17.08984375,100.0,1.524649374073E12,0.0,
431027.9235839844,128.0,0.1691252194792294,54.78070435293965,89.97300884791184,17.08984375,100.0,1.524649374073E12,0.0,
431028.9001464844,128.0,0.20302238500385106,54.682979545948456,89.97300884791184,17.08984375,100.0,1.524649374073E12,0.0,
431029.8767089844,128.0,0.27838948707455247,54.73995563268133,89.97300884791184,17.08984375,100.0,1.524649374073E12,0.0,
431030.8532714844,128.0,0.3011078001389265,54.717597927760835,89.97300884791184,17.08984375,100.0,1.524649374082E12,0.0,
431031.8298339844,128.0,0.3234655050594217,54.77998313665189,89.97300884791184,17.08984375,100.0,1.524649374083E12,0.0,
431032.8063964844,128.0,0.36673848232489614,54.70605846715671,89.97300884791184,17.08984375,100.0,1.524649374083E12,0.0,
431033.7829589844,128.0,0.6898433792404389,54.820010640622456,89.97300884791184,17.08984375,100.0,1.524649374083E12,0.0,
431034.7595214844,128.0,1.0230453041845924,54.84849868398889,89.97300884791184,17.08984375,100.0,1.524649374083E12,0.0,
431035.7360839844,128.0,1.3039590482662975,54.792965029831535,89.97300884791184,17.08984375,100.0,1.524649374085E12,0.0,
431036.7126464844,128.0,1.4503659546811527,54.86003814459302,89.97300884791184,17.08984375,100.0,1.524649374085E12,0.0,
431037.6892089844,128.0,1.4694781863067374,54.79404685426317,89.97300884791184,17.08984375,100.0,1.524649374085E12,0.0,
431038.6657714844,128.0,1.4298112904800524,54.85246537357156,89.97300884791184,17.08984375,100.0,1.524649374085E12,0.0,
431039.6423339844,128.0,1.1380793020819786,54.778901312220256,89.97300884791184,17.08984375,100.0,1.524649374085E12,0.0,
431040.6188964844,128.0,0.8340866367920204,54.68117650522906,89.97300884791184,17.08984375,100.0,1.524649374086E12,0.0,
431041.5954589844,128.0,0.47492092548858234,54.61734886376249,89.97300884791184,0.0,100.0,1.524649374127E12,0.0,
431042.5720214844,128.0,0.1831889370905086,54.66494913875451,89.97300884791184,0.0,100.0,1.524649374128E12,0.0,
431043.5485839844,128.0,0.15037359599752378,54.70209177757404,89.97300884791184,0.0,100.0,1.524649374128E12,0.0,
431044.5251464844,128.0,0.16804339504759253,54.6480005559922,89.97300884791184,0.0,100.0,1.524649374128E12,0.0,
431045.5017089844,128.0,0.17814042307620326,54.66494913875451,89.97300884791184,0.0,100.0,1.524649374128E12,0.0,
431046.4782714844,128.0,0.18751623481705604,54.758707256163035,89.97300884791184,0.0,100.0,1.524649374128E12,0.0,
431047.4548339844,128.0,0.16371609732104508,54.731661645372114,89.97300884791184,0.0,100.0,1.524649374128E12,0.0,
431048.4313964844,128.0,0.1817465045149928,54.68838866810664,89.97300884791184,0.0,100.0,1.524649374129E12,0.0,
431049.4079589844,128.0,0.2592772554489679,54.65809758402081,89.97300884791184,0.0,100.0,1.524649374129E12,0.0,
431050.3845214844,128.0,0.2906501639664369,54.576960751648045,89.97300884791184,0.0,100.0,1.524649374129E12,0.0,
431051.3610839844,128.0,0.31192604445529515,54.68153711337294,89.97300884791184,0.0,100.0,1.524649374129E12,0.0,
431052.3376464844,128.0,0.33392314123191136,54.632133797661524,89.97300884791184,0.0,100.0,1.524649374129E12,0.0,
431053.3142089844,128.0,0.5210787679050884,54.69127353325767,89.97300884791184,0.0,100.0,1.524649374129E12,0.0,
431054.2907714844,128.0,0.8733929244748264,54.813159085888756,89.97300884791184,0.0,100.0,1.52464937413E12,0.0,
431055.2673339844,128.0,1.1802704549158163,54.772770973774314,89.97300884791184,0.0,100.0,1.52464937413E12,0.0,
431056.2438964844,128.0,1.3955535168115518,54.803062057860146,89.97300884791184,0.0,100.0,1.52464937413E12,0.0,
431057.2204589844,128.0,1.4738054840332848,54.77060732491104,89.97300884791184,0.0,100.0,1.52464937413E12,0.0,
431058.1970214844,128.0,1.4546932524077003,54.74103745711297,89.97300884791184,0.0,100.0,1.52464937413E12,0.0,
431059.1735839844,128.0,1.2989105342519922,54.65845819216469,89.97300884791184,0.0,100.0,1.52464937413E12,0.0,
431060.1501464844,128.0,0.9804935432068758,54.70245238571792,89.97300884791184,0.0,100.0,1.524649374131E12,0.0,
431061.1267089844,128.0,0.6595522951546068,54.63069136508601,89.97300884791184,0.0,100.0,1.524649374131E12,0.0,
431062.1032714844,128.0,0.2711773241969734,54.579845616799076,89.97300884791184,0.0,100.0,1.524649374131E12,0.0,
431063.0798339844,128.0,0.15794636701898182,54.625282242927824,89.97300884791184,0.0,100.0,1.524649374131E12,0.0,
431064.0563964844,128.0,0.16047062402613452,54.63393683838092,89.97300884791184,0.0,100.0,1.524649374131E12,0.0,
431065.0329589844,128.0,0.17886163936396116,54.7010099531424,89.97300884791184,0.0,100.0,1.524649374131E12,0.0,
431066.0095214844,128.0,0.19040109996808768,54.6530490700065,89.97300884791184,0.0,100.0,1.524649374132E12,0.0,
431066.9860839844,128.0,0.17561616606905056,54.614824606755334,89.97300884791184,0.0,100.0,1.524649374132E12,0.0,
431067.9626464844,128.0,0.17273130091801894,54.66350670617899,89.97300884791184,0.0,100.0,1.524649374132E12,0.0,
431068.9392089844,128.0,0.20879211530591432,54.71146758931489,89.97300884791184,0.0,100.0,1.524649374132E12,0.0,
431069.9157714844,128.0,0.2827167848010999,54.67071886905657,89.97300884791184,0.0,100.0,1.524649374132E12,0.0,
431070.8923339844,128.0,0.30795935487262666,54.68550380295561,89.97300884791184,0.0,100.0,1.524649374132E12,0.0,
431071.8688964844,128.0,0.328874627217606,54.65160663743099,89.97300884791184,0.0,100.0,1.524649374133E12,0.0,
431072.8454589844,128.0,0.3923416605403019,54.700649344998524,89.97300884791184,0.0,100.0,1.524649374133E12,0.0,
431073.8220214844,128.0,0.7143647330242078,54.755461782868124,89.97300884791184,0.0,100.0,1.524649374133E12,0.0,
431074.7985839844,128.0,1.034945372932598,54.82109246505409,89.97300884791184,0.0,100.0,1.524649374133E12,0.0,
431075.7751464844,128.0,1.3104499948561186,54.7987347601336,89.97300884791184,0.0,100.0,1.524649374133E12,0.0,
431076.7517089844,128.0,1.4456780488107264,54.81460151846427,89.97300884791184,0.0,100.0,1.524649374133E12,0.0,
431077.7282714844,128.0,1.4629872397169161,54.7695255004794,89.97300884791184,0.0,100.0,1.524649374133E12,0.0,
431078.7048339844,128.0,1.4182718298759258,54.76664063532837,89.97300884791184,0.0,100.0,1.524649374134E12,0.0,
431079.6813964844,128.0,1.118967070456394,54.73959502453745,89.97300884791184,0.0,100.0,1.524649374134E12,0.0,
431080.6579589844,128.0,0.8124501481592833,54.58777899596441,89.97300884791184,0.0,100.0,1.524649374134E12,0.0,
431081.6345214844,128.0,0.454005653143603,54.604006362438966,89.97300884791184,0.0,100.0,1.524649374134E12,0.0,
431082.6110839844,128.0,0.18499197780990337,54.60580940315836,89.97300884791184,0.0,100.0,1.524649374134E12,0.0,
431083.5876464844,128.0,0.15434028558019228,54.62203676963291,89.97300884791184,0.0,100.0,1.524649374134E12,0.0,
431084.5642089844,128.0,0.17453434163741371,54.65016420485547,89.97300884791184,0.0,100.0,1.524649374135E12,0.0,
431085.5407714844,128.0,0.17056765205474522,54.65413089443814,89.97300884791184,0.0,100.0,1.524649374135E12,0.0,
431086.5173339844,128.0,0.19508900583851407,54.6959614391281,89.97300884791184,0.0,100.0,1.524649374135E12,0.0,
431087.4938964844,128.0,0.17164947648638207,54.67035826091269,89.97300884791184,0.0,100.0,1.524649374135E12,0.0,
431088.4704589844,128.0,0.1871556266731771,54.700288736854645,89.97300884791184,0.0,100.0,1.524649374135E12,0.0,
431089.4470214844,128.0,0.2639651613193943,54.693437182120945,89.97300884791184,0.0,100.0,1.524649374135E12,0.0,
431090.4235839844,128.0,0.297141110556258,54.63069136508601,89.97300884791184,0.0,100.0,1.524649374136E12,0.0,
431091.4001464844,128.0,0.31697455846960054,54.69487961469646,89.97300884791184,0.0,100.0,1.524649374136E12,0.0,
431092.3767089844,128.0,0.33788983081457985,54.62780649993498,89.97300884791184,0.0,100.0,1.524649374136E12,0.0,
431093.3532714844,128.0,0.540551607674552,54.75041326885382,89.97300884791184,0.0,100.0,1.524649374136E12,0.0,
431094.3298339844,128.0,0.8975536701147163,54.77096793305492,89.97300884791184,5.37109375,100.0,1.524649374136E12,0.0,
431095.3063964844,128.0,1.1946947806709745,54.84308956183071,89.97300884791184,5.37109375,100.0,1.524649374136E12,0.0,
431096.2829589844,128.0,1.3973565575309466,54.84994111656441,89.97300884791184,5.37109375,100.0,1.524649374137E12,0.0,
431097.2595214844,128.0,1.4673145374434635,54.76664063532837,89.97300884791184,5.37109375,100.0,1.524649374137E12,0.0,
431098.2360839844,128.0,1.4496447383933948,54.790080164680504,89.97300884791184,5.37109375,100.0,1.524649374137E12,0.0,
431099.2126464844,128.0,1.276913437475376,54.58525473895726,89.97300884791184,0.390625,100.0,1.524649374138E12,0.0,
431100.1892089844,128.0,0.9581358382863806,54.618430688194124,89.97300884791184,0.390625,100.0,1.524649374138E12,0.0,
431101.1657714844,128.0,0.6310642517881694,54.50700277173553,89.97300884791184,0.390625,100.0,1.524649374138E12,0.0,
431102.1423339844,128.0,0.25170448442750987,54.57876379236744,89.97300884791184,0.390625,100.0,1.524649374138E12,0.0,
431103.1188964844,128.0,0.16083123217001347,54.62239737777679,89.97300884791184,0.390625,100.0,1.524649374138E12,0.0,
431104.0954589844,128.0,0.164437313608803,54.675406774927,89.97300884791184,0.390625,100.0,1.524649374153E12,0.0,
431105.0720214844,128.0,0.17777981493232428,54.672882517919845,89.97300884791184,0.390625,100.0,1.524649374153E12,0.0,
431106.0485839844,128.0,0.18895866739257186,54.73562833495478,89.97300884791184,0.390625,100.0,1.524649374153E12,0.0,
431107.0251464844,128.0,0.1730919090618979,54.635018662812556,89.97300884791184,0.390625,100.0,1.524649374153E12,0.0,
431108.0017089844,128.0,0.17453434163741371,54.69163414140155,89.97300884791184,0.390625,100.0,1.524649374153E12,0.0,
431108.9782714844,128.0,0.21492245375185656,54.693797790264824,89.97300884791184,0.390625,100.0,1.524649374154E12,0.0,
431109.9548339844,128.0,0.28632286623988945,54.727694955789445,89.97300884791184,0.390625,100.0,1.524649374167E12,0.0,
431110.9313964844,128.0,0.30723813858486876,54.71831914404859,89.97300884791184,0.390625,100.0,1.524649374168E12,0.0,
431111.9079589844,128.0,0.32671097835433227,54.71507367075368,89.97300884791184,0.390625,100.0,1.524649374168E12,0.0,
431112.8845214844,128.0,0.4002750397056389,54.75654360729976,89.97300884791184,0.390625,100.0,1.524649374168E12,0.0,
431113.8610839844,128.0,0.7435739926784031,54.838041047816404,89.97300884791184,0.390625,100.0,1.524649374168E12,0.0,
431114.8376464844,128.0,1.056942469709214,54.892492877542125,89.97300884791184,0.390625,100.0,1.524649374168E12,0.0,
431115.8142089844,128.0,1.323431888035761,54.8261409790684,89.97300884791184,0.390625,100.0,1.524649374173E12,0.0,
431116.7907714844,128.0,1.456856901270974,54.817486383615304,89.97300884791184,0.390625,100.0,1.524649374173E12,0.0,
431117.7673339844,128.0,1.4694781863067374,54.81604395103979,89.97300884791184,0.390625,100.0,1.524649374173E12,0.0,
431118.7438964844,128.0,1.4024050715452518,54.74644657927115,89.97300884791184,0.390625,100.0,1.524649374173E12,0.0,
431119.7204589844,128.0,1.0980517981114148,54.769164892335525,89.97300884791184,0.390625,100.0,1.524649374173E12,0.0,
431120.6970214844,128.0,0.7944197409653355,54.676488599358635,89.97300884791184,0.390625,100.0,1.524649374174E12,0.0,
431121.6735839844,128.0,0.4222721364822551,54.6461975152728,89.97300884791184,0.390625,100.0,1.524649374176E12,0.0,
431122.6501464844,128.0,0.18823745110481396,54.72949799650884,89.97300884791184,0.390625,100.0,1.524649374176E12,0.0,
431123.6267089844,128.0,0.16263427288940824,54.66350670617899,89.97300884791184,0.390625,100.0,1.524649374176E12,0.0,
431124.6032714844,128.0,0.17597677421292954,54.703534210149556,89.97300884791184,0.390625,100.0,1.524649374177E12,0.0,
431125.5798339844,128.0,0.18895866739257186,54.63790352796359,89.97300884791184,0.390625,100.0,1.524649374177E12,0.0,
431126.5563964844,128.0,0.1965314384140299,54.73995563268133,89.97300884791184,0.390625,100.0,1.524649374195E12,0.0,
431127.5329589844,128.0,0.1885980592486929,54.72300704991902,89.97300884791184,0.390625,100.0,1.524649374195E12,0.0,
431128.5095214844,128.0,0.19292535697524035,54.649082380423835,89.97300884791184,0.390625,100.0,1.524649374195E12,0.0,
431129.4860839844,128.0,0.27586523006739977,54.800177192709114,89.97300884791184,0.390625,100.0,1.524649374196E12,0.0,
431130.4626464844,128.0,0.30182901642668447,54.66026123288408,89.97300884791184,0.390625,100.0,1.524649374196E12,0.0,
431131.4392089844,128.0,0.32743219464209017,54.7421192815446,89.97300884791184,0.390625,100.0,1.524649374196E12,0.0,
431132.4157714844,128.0,0.352674764713617,54.768804284191646,89.97300884791184,0.390625,100.0,1.524649374196E12,0.0,
431133.3923339844,128.0,0.579857895357358,54.8192894243347,89.97300884791184,0.390625,100.0,1.524649374196E12,0.0,
431134.3688964844,128.0,0.9245992809056379,54.86256240160017,89.97300884791184,0.390625,100.0,1.524649374196E12,0.0,
431135.3454589844,128.0,1.2188555263108642,54.82541976278064,89.97300884791184,0.390625,100.0,1.524649374197E12,0.0,
431136.3220214844,128.0,1.4128627077177416,54.858595712017504,89.97300884791184,0.390625,100.0,1.524649374197E12,0.0,
431137.2985839844,128.0,1.4716418351700111,54.8398440885358,89.97300884791184,0.390625,100.0,1.524649374197E12,0.0,
431138.2751464844,128.0,1.4608235908536424,54.76736185161613,89.97300884791184,0.390625,100.0,1.524649374197E12,0.0,
431139.2517089844,128.0,1.2578012058497914,54.765919419040614,89.97300884791184,0.390625,100.0,1.524649374197E12,0.0,
431140.2282714844,128.0,0.9545297568475911,54.72228583363126,89.97300884791184,0.390625,100.0,1.524649374197E12,0.0,
431141.2048339844,128.0,0.6130338445942217,54.57119102134598,89.97300884791184,0.390625,100.0,1.524649374198E12,0.0,
431142.1813964844,128.0,0.25639239029793626,54.59679419956139,89.97300884791184,0.390625,100.0,1.524649374198E12,0.0,
431143.1579589844,128.0,0.17164947648638207,54.59859724028078,89.97300884791184,0.390625,100.0,1.524649374198E12,0.0,
431144.1345214844,128.0,0.1730919090618979,54.68586441109949,89.97300884791184,0.390625,100.0,1.524649374198E12,0.0,
431145.1110839844,128.0,0.18751623481705604,54.64944298856771,89.97300884791184,0.390625,100.0,1.524649374198E12,0.0,
431146.0876464844,128.0,0.2026617768599721,54.59571237512975,89.97300884791184,0.390625,100.0,1.524649374198E12,0.0,
431147.0642089844,128.0,0.18354954523438755,54.67720981564639,89.97300884791184,0.390625,100.0,1.524649374199E12,0.0,
431148.0407714844,128.0,0.19436778955075618,54.70173116943016,89.97300884791184,0.390625,100.0,1.524649374199E12,0.0,
431149.0173339844,128.0,0.23583772609683587,54.60941548459715,89.97300884791184,0.390625,100.0,1.524649374199E12,0.0,
431149.9938964844,128.0,0.29425624540522644,54.59210629369096,89.97300884791184,0.390625,100.0,1.524649374199E12,0.0,
431150.9704589844,128.0,0.3238261132033006,54.607612443877755,89.97300884791184,0.390625,100.0,1.524649374199E12,0.0,
431151.9470214844,128.0,0.3407746959656115,54.532605949950934,89.97300884791184,0.390625,100.0,1.524649374199E12,0.0,
431152.9235839844,128.0,0.43092673193534997,54.635018662812556,89.97300884791184,0.390625,100.0,1.5246493742E12,0.0,
431153.9001464844,128.0,0.775307509339751,54.71976157662411,89.97300884791184,0.390625,100.0,1.5246493742E12,0.0,
431154.8767089844,128.0,1.088315378226683,54.80053780085299,89.97300884791184,0.390625,100.0,1.5246493742E12,0.0,
431155.8532714844,128.0,1.3414622952297086,54.765198202752856,89.97300884791184,0.390625,100.0,1.5246493742E12,0.0,
431156.8298339844,128.0,1.4629872397169161,54.82145307319797,89.97300884791184,0.390625,100.0,1.5246493742E12,0.0,
431157.8063964844,128.0,1.472363051457769,54.74067684896909,89.97300884791184,0.390625,100.0,1.5246493742E12,0.0,
431158.7829589844,128.0,1.394111084236036,54.7576254317314,89.97300884791184,0.390625,100.0,1.524649374201E12,0.0,
431159.7595214844,128.0,1.0836274723562567,54.645115690841166,89.97300884791184,0.390625,100.0,1.524649374201E12,0.0,
431160.7360839844,128.0,0.7760287256275089,54.62924893251049,89.97300884791184,0.390625,100.0,1.524649374201E12,0.0,
431161.7126464844,128.0,0.40892963515873376,54.57191223763374,89.97300884791184,0.390625,100.0,1.524649374201E12,0.0,
431162.6892089844,128.0,0.19148292439972456,54.66098244917184,89.97300884791184,0.390625,100.0,1.524649374201E12,0.0,
431163.6657714844,128.0,0.17597677421292954,54.59499115884199,89.97300884791184,0.390625,100.0,1.524649374201E12,0.0,
431164.6423339844,128.0,0.18679501852929814,54.690552316969914,89.97300884791184,0.390625,100.0,1.524649374202E12,0.0,
431165.6188964844,128.0,0.19400718140687723,54.6599006247402,89.97300884791184,0.390625,100.0,1.524649374202E12,0.0,
431166.5954589844,128.0,0.19508900583851407,54.697403871703614,89.97300884791184,0.390625,100.0,1.524649374202E12,0.0,
431167.5720214844,128.0,0.1792222475078401,54.68117650522906,89.97300884791184,0.390625,100.0,1.524649374202E12,0.0,
431168.5485839844,128.0,0.19905569542118257,54.638624744251345,89.97300884791184,0.390625,100.0,1.524649374202E12,0.0,
431169.5251464844,128.0,0.28379860923273675,54.693076573977066,89.97300884791184,0.390625,100.0,1.524649374202E12,0.0,
431170.5017089844,128.0,0.31048361187977935,54.7233676580629,89.97300884791184,0.390625,100.0,1.524649374203E12,0.0,
431171.4782714844,128.0,0.33716861452682195,54.71940096848023,89.97300884791184,0.390625,100.0,1.524649374203E12,0.0,
431172.4548339844,128.0,0.3562808461524065,54.65701575958917,89.97300884791184,0.390625,100.0,1.524649374203E12,0.0,
431173.4313964844,128.0,0.6072641142921584,54.7489708362783,89.97300884791184,0.390625,100.0,1.524649374203E12,0.0,
431174.4079589844,128.0,0.9491206346894068,54.76411637832122,89.97300884791184,0.390625,100.0,1.524649374203E12,0.0,
431175.3845214844,128.0,1.2437374882385122,54.76375577017734,89.97300884791184,0.390625,100.0,1.524649374203E12,0.0,
431176.3610839844,128.0,1.4265658171851419,54.82974706050719,89.97300884791184,0.390625,100.0,1.524649374204E12,0.0,
431177.3376464844,128.0,1.4741660921771638,54.80270144971627,89.97300884791184,0.390625,100.0,1.524649374204E12,0.0,
431178.3142089844,128.0,1.4582993338464898,54.762313337601825,89.97300884791184,0.390625,100.0,1.524649374204E12,0.0,
431179.2907714844,128.0,1.23760714979257,54.73274346980375,89.97300884791184,0.390625,100.0,1.524649374204E12,0.0,
431180.2673339844,128.0,0.9361387415097644,54.65845819216469,89.97300884791184,0.390625,100.0,1.524649374204E12,0.0,
431181.2438964844,128.0,0.5986095188390635,54.63033075694213,89.97300884791184,0.390625,100.0,1.524649374204E12,0.0,
431182.2204589844,128.0,0.24918022742035717,54.64006717682686,89.97300884791184,0.390625,100.0,1.524649374205E12,0.0,
431183.1970214844,128.0,0.18210711265887175,54.648721772279956,89.97300884791184,0.390625,100.0,1.524649374205E12,0.0,
431184.1735839844,128.0,0.1817465045149928,54.74284049783236,89.97300884791184,0.390625,100.0,1.524649374205E12,0.0,
431185.1501464844,128.0,0.19689204655790885,54.70822211601998,89.97300884791184,0.390625,100.0,1.524649374216E12,0.0,
431186.1267089844,128.0,0.20879211530591432,54.73382529423539,89.97300884791184,0.390625,100.0,1.524649374216E12,0.0,
431187.1032714844,128.0,0.18102528822723488,54.690191708826035,89.97300884791184,0.390625,100.0,1.524649374216E12,0.0,
431188.0798339844,128.0,0.19148292439972456,54.73887380824969,89.97300884791184,0.390625,100.0,1.524649374217E12,0.0,
431189.0563964844,128.0,0.24809840298872032,54.73959502453745,89.97300884791184,0.390625,100.0,1.524649374217E12,0.0,
431190.0329589844,128.0,0.2985835431317739,54.74752840370279,89.97300884791184,0.390625,100.0,1.524649374217E12,0.0,
431191.0095214844,128.0,0.3256291539226954,54.74067684896909,89.97300884791184,0.390625,100.0,1.524649374218E12,0.0,
431191.9860839844,128.0,0.3440201692605221,54.769164892335525,89.97300884791184,0.390625,100.0,1.524649374218E12,0.0,
431192.9626464844,128.0,0.45220261242420823,54.7370707675303,89.97300884791184,0.390625,100.0,1.524649374218E12,0.0,
431193.9392089844,128.0,0.8081228504327358,54.86941395633387,89.97300884791184,0.390625,100.0,1.524649374218E12,0.0,
431194.9157714844,128.0,1.1081488261400254,54.80125901714075,89.97300884791184,0.390625,100.0,1.524649374222E12,0.0,
431195.8923339844,128.0,1.35480479655323,54.89141105311049,89.97300884791184,0.390625,100.0,1.524649374223E12,0.0,
431196.8688964844,128.0,1.4738054840332848,54.85210476542768,89.97300884791184,0.390625,100.0,1.524649374223E12,0.0,
431197.8454589844,128.0,1.473084267745527,54.78214678551517,89.97300884791184,0.390625,100.0,1.524649374223E12,0.0,
431198.8220214844,128.0,1.3840140562074252,54.67396434235148,89.97300884791184,0.390625,100.0,1.524649374224E12,0.0,
431199.7985839844,128.0,1.0695637547449774,54.61518521489921,89.97300884791184,0.390625,100.0,1.524649374224E12,0.0,
431200.7751464844,128.0,0.7536710207070138,54.58669717153278,89.97300884791184,0.390625,100.0,1.524649374225E12,0.0,
431201.7517089844,128.0,0.38621132209435965,54.52070588120293,89.97300884791184,0.390625,100.0,1.524649374226E12,0.0,
431202.7282714844,128.0,0.195810222126272,54.57443649464089,89.97300884791184,0.390625,100.0,1.524649374226E12,0.0,
431203.7048339844,128.0,0.17417373349353477,54.64655812341668,89.97300884791184,0.390625,100.0,1.524649374226E12,0.0,
431204.6813964844,128.0,0.1925647488313614,54.635379270956435,89.97300884791184,0.390625,100.0,1.524649374227E12,0.0,
431205.6579589844,128.0,0.20085873614057734,54.63754291981971,89.97300884791184,0.390625,100.0,1.524649374228E12,0.0,
431206.6345214844,128.0,0.19797387098954572,54.68189772151682,89.97300884791184,0.390625,100.0,1.524649374234E12,0.0,
431207.6110839844,128.0,0.18282832894662965,54.648721772279956,89.97300884791184,0.390625,100.0,1.524649374234E12,0.0,
431208.5876464844,128.0,0.2066284664426406,54.66891582833718,89.97300884791184,0.390625,100.0,1.524649374234E12,0.0,
431209.5642089844,128.0,0.28235617665722096,54.741758673400724,89.97300884791184,0.390625,100.0,1.524649374234E12,0.0,
431210.5407714844,128.0,0.31589273403796364,54.652327853718745,89.97300884791184,0.390625,100.0,1.524649374234E12,0.0,
431211.5173339844,128.0,0.33788983081457985,54.74716779555891,89.97300884791184,0.390625,100.0,1.524649374234E12,0.0,
431212.4938964844,128.0,0.35808388687180126,54.786474083241714,89.97300884791184,0.390625,100.0,1.524649374237E12,0.0,
431213.4704589844,128.0,0.634670333226959,54.748610228134424,89.97300884791184,0.390625,100.0,1.524649374238E12,0.0,
431214.4470214844,128.0,0.9732813803292967,54.906195987009525,89.97300884791184,0.390625,100.0,1.524649374238E12,0.0,
431215.4235839844,128.0,1.2585224221375493,54.7987347601336,89.97300884791184,0.390625,100.0,1.524649374238E12,0.0,
431216.4001464844,128.0,1.4247627764657471,54.886001930952304,89.97300884791184,0.390625,100.0,1.524649374238E12,0.0,
431217.3767089844,128.0,1.473084267745527,54.793325637975414,89.97300884791184,0.390625,100.0,1.524649374238E12,0.0,
431218.3532714844,128.0,1.4460386569546053,54.85679267129811,89.97300884791184,0.390625,100.0,1.524649374245E12,0.0,
431219.3298339844,128.0,1.2091191064261326,54.772049757486556,89.97300884791184,0.390625,100.0,1.524649374245E12,0.0,
431220.3063964844,128.0,0.9108961714382376,54.628527716222735,89.97300884791184,0.390625,100.0,1.524649374245E12,0.0,
431221.2829589844,128.0,0.5657941777460788,54.6891098843944,89.97300884791184,0.390625,100.0,1.524649374245E12,0.0,
431222.2595214844,128.0,0.22970738765089366,54.60653061944612,89.97300884791184,0.390625,100.0,1.524649374245E12,0.0,
431223.2360839844,128.0,0.17056765205474522,54.673243126063724,89.97300884791184,0.390625,100.0,1.524649374246E12,0.0,
431224.2126464844,128.0,0.18030407193947698,54.69812508799137,89.97300884791184,0.390625,100.0,1.524649374246E12,0.0,
431225.1892089844,128.0,0.19112231625584558,54.71327063003429,89.97300884791184,0.390625,100.0,1.524649374246E12,0.0,
431226.1657714844,128.0,0.20157995242833526,54.67107947720045,89.97300884791184,0.390625,100.0,1.524649374246E12,0.0,
431227.1423339844,128.0,0.17128886834250312,54.700288736854645,89.97300884791184,0.390625,100.0,1.524649374246E12,0.0,
431228.1188964844,128.0,0.19004049182420873,54.6941583984087,89.97300884791184,0.390625,100.0,1.524649374246E12,0.0,
431229.0954589844,128.0,0.250262051851994,54.758707256163035,89.97300884791184,0.390625,100.0,1.524649374247E12,0.0,
431230.0720214844,128.0,0.2982229349878949,54.73562833495478,89.97300884791184,0.390625,100.0,1.524649374247E12,0.0,
431231.0485839844,128.0,0.3231048969155427,54.70641907530059,89.97300884791184,0.390625,100.0,1.524649374247E12,0.0,
431232.0251464844,128.0,0.34113530410949044,54.624561026640066,89.97300884791184,0.390625,100.0,1.524649374247E12,0.0,
431233.0017089844,128.0,0.46770876261100325,54.74284049783236,89.97300884791184,0.390625,100.0,1.524649374248E12,0.0,
431233.9782714844,128.0,0.8171380540297096,54.80919239630609,89.97300884791184,0.390625,100.0,1.524649374248E12,0.0,
431234.9548339844,128.0,1.120048894888031,54.81460151846427,89.97300884791184,0.390625,100.0,1.524649374248E12,0.0,
431235.9313964844,128.0,1.3609351349991723,54.77529523078147,89.97300884791184,0.390625,100.0,1.524649374248E12,0.0,
431236.9079589844,128.0,1.4655114967240688,54.820010640622456,89.97300884791184,0.390625,100.0,1.524649374248E12,0.0,
431237.8845214844,128.0,1.4626266315730372,54.79837415198972,89.97300884791184,0.390625,100.0,1.524649374248E12,0.0,
431238.8610839844,128.0,1.3594927024236563,54.71579488704144,89.97300884791184,0.390625,100.0,1.524649374248E12,0.0,
431239.8376464844,128.0,1.0515333475510298,54.682979545948456,89.97300884791184,0.390625,100.0,1.524649374249E12,0.0,
431240.8142089844,128.0,0.736001221656945,54.6393459605391,89.97300884791184,0.390625,100.0,1.524649374249E12,0.0,
431241.7907714844,128.0,0.35988692759119606,54.550275749001,89.97300884791184,0.390625,100.0,1.524649374249E12,0.0,
431242.7673339844,128.0,0.18751623481705604,54.61013670088491,89.97300884791184,0.390625,100.0,1.524649374249E12,0.0,
431243.7438964844,128.0,0.17705859864456638,54.65773697587693,89.97300884791184,0.390625,100.0,1.524649374249E12,0.0,
431244.7204589844,128.0,0.18679501852929814,54.70605846715671,89.97300884791184,0.390625,100.0,1.524649374249E12,0.0,
431245.6970214844,128.0,0.20230116871609316,54.662785489891235,89.97300884791184,0.390625,100.0,1.524649374249E12,0.0,
431246.6735839844,128.0,0.19220414068748246,54.652327853718745,89.97300884791184,0.390625,100.0,1.52464937425E12,0.0,
431247.6501464844,128.0,0.18138589637111383,54.61698825561861,89.97300884791184,0.390625,100.0,1.52464937425E12,0.0,
431248.6267089844,128.0,0.20843150716203537,54.58236987380623,89.97300884791184,0.390625,100.0,1.52464937425E12,0.0,
431249.6032714844,128.0,0.2906501639664369,54.597154807705266,89.97300884791184,0.390625,100.0,1.52464937425E12,0.0,
431250.5798339844,128.0,0.3108442200236583,54.624561026640066,89.97300884791184,0.390625,100.0,1.52464937425E12,0.0,
431251.5563964844,128.0,0.33212010051251656,54.638985352395224,89.97300884791184,0.390625,100.0,1.52464937425E12,0.0,
431252.5329589844,128.0,0.3728688207708384,54.70569785901283,89.97300884791184,0.390625,100.0,1.52464937425E12,0.0,
431253.5095214844,128.0,0.6523401322770277,54.67432495049536,89.97300884791184,0.390625,100.0,1.524649374251E12,0.0,
431254.4860839844,128.0,0.9729207721854177,54.840565304823556,89.97300884791184,0.390625,100.0,1.524649374251E12,0.0,
431255.4626464844,128.0,1.254195124411002,54.73418590237927,89.97300884791184,0.390625,100.0,1.524649374251E12,0.0,
431256.4392089844,128.0,1.4247627764657471,54.87338064591654,89.97300884791184,0.390625,100.0,1.524649374251E12,0.0,
431257.4157714844,128.0,1.463708456004674,54.80486509857954,89.97300884791184,0.390625,100.0,1.524649374251E12,0.0,
431258.3923339844,128.0,1.4337779800627208,54.765198202752856,89.97300884791184,0.390625,100.0,1.524649374251E12,0.0,
431259.3688964844,128.0,1.1849583607862426,54.77493462263759,89.97300884791184,0.390625,100.0,1.524649374251E12,0.0,
431260.3454589844,128.0,0.8881778583738635,54.652688461862624,89.97300884791184,0.390625,100.0,1.524649374252E12,0.0,
431261.3220214844,128.0,0.5434364728255836,54.738152591961935,89.97300884791184,0.390625,100.0,1.524649374252E12,0.0,
431262.2985839844,128.0,0.23042860393865158,54.61662764747473,89.97300884791184,0.390625,100.0,1.524649374252E12,0.0,
431263.2751464844,128.0,0.16948582762310835,54.713991846322045,89.97300884791184,0.390625,100.0,1.524649374252E12,0.0,
431264.2517089844,128.0,0.1857131940976613,54.7781800959325,89.97300884791184,0.390625,100.0,1.524649374252E12,0.0,
431265.2282714844,128.0,0.19436778955075618,54.686225019243366,89.97300884791184,0.390625,100.0,1.524649374252E12,0.0,
431266.2048339844,128.0,0.2051860338671248,54.665670355042266,89.97300884791184,0.390625,100.0,1.524649374252E12,0.0,
431267.1813964844,128.0,0.1831889370905086,54.75726482358752,89.97300884791184,0.390625,100.0,1.524649374253E12,0.0,
431268.1579589844,128.0,0.19364657326299828,54.69091292511379,89.97300884791184,0.390625,100.0,1.524649374253E12,0.0,
431269.1345214844,128.0,0.25639239029793626,54.768804284191646,89.97300884791184,0.390625,100.0,1.524649374253E12,0.0,
431270.1110839844,128.0,0.30074719199504757,54.74103745711297,89.97300884791184,0.390625,100.0,1.524649374253E12,0.0,
431271.0876464844,128.0,0.3263503702104533,54.69271596583319,89.97300884791184,0.390625,100.0,1.524649374253E12,0.0,
431272.0642089844,128.0,0.3436595611166431,54.70605846715671,89.97300884791184,0.390625,100.0,1.524649374253E12,0.0,
431273.0407714844,128.0,0.4907876838192563,54.74716779555891,89.97300884791184,0.390625,100.0,1.524649374253E12,0.0,
431274.0173339844,128.0,0.8293987309215941,54.888886796103336,89.97300884791184,0.390625,100.0,1.524649374254E12,0.0,
431274.9938964844,128.0,1.126539841477852,54.803783274147904,89.97300884791184,0.390625,100.0,1.524649374259E12,0.0,
431275.9704589844,128.0,1.3465108092440141,54.81640455918367,89.97300884791184,0.390625,100.0,1.524649374259E12,0.0,
431276.9470214844,128.0,1.4445962243790895,54.865086658607325,89.97300884791184,0.390625,100.0,1.524649374259E12,0.0,
431277.9235839844,128.0,1.4438750080913316,54.73995563268133,89.97300884791184,0.390625,100.0,1.524649374259E12,0.0,
431278.9001464844,128.0,1.3306440509133401,54.85210476542768,89.97300884791184,0.390625,100.0,1.524649374259E12,0.0,
431279.8767089844,128.0,1.0273726019111398,54.67107947720045,89.97300884791184,0.390625,100.0,1.52464937426E12,0.0,
431280.8532714844,128.0,0.7194132470385132,54.67504616678312,89.97300884791184,0.390625,100.0,1.524649374281E12,0.0,
431281.8298339844,128.0,0.3544778054330117,54.70894333230774,89.97300884791184,0.390625,100.0,1.524649374281E12,0.0,
431282.8063964844,128.0,0.20121934428445631,54.66350670617899,89.97300884791184,0.390625,100.0,1.524649374281E12,0.0,
431283.7829589844,128.0,0.19112231625584558,54.7078615078761,89.97300884791184,0.390625,100.0,1.524649374282E12,0.0,
431284.7595214844,128.0,0.2004981279966984,54.68514319481173,89.97300884791184,0.390625,100.0,1.524649374282E12,0.0,
431285.7360839844,128.0,0.2131194130324618,54.68947049253828,89.97300884791184,0.390625,100.0,1.524649374283E12,0.0,
431286.7126464844,128.0,0.19076170811196663,54.73671015938642,89.97300884791184,0.390625,100.0,1.524649374283E12,0.0,
431287.6892089844,128.0,0.1824677208027507,54.710746373027135,89.97300884791184,0.390625,100.0,1.524649374283E12,0.0,
431288.6657714844,128.0,0.22249522477331457,54.6959614391281,89.97300884791184,0.390625,100.0,1.524649374283E12,0.0,
431289.6423339844,128.0,0.29750171870013703,54.714352454465924,89.97300884791184,0.390625,100.0,1.524649374284E12,0.0,
431290.6188964844,128.0,0.3241867213471796,54.74644657927115,89.97300884791184,0.390625,100.0,1.524649374284E12,0.0,
431291.5954589844,128.0,0.336808006382943,54.75942847245079,89.97300884791184,0.390625,100.0,1.52464937429E12,0.0,
431292.5720214844,128.0,0.3786385510729016,54.73238286165987,89.97300884791184,0.390625,100.0,1.52464937429E12,0.0,
431293.5485839844,128.0,0.6674856743199438,54.73923441639357,89.97300884791184,0.390625,100.0,1.52464937429E12,0.0,
431294.5251464844,128.0,0.9758056373364494,54.78755590767335,89.97300884791184,0.390625,100.0,1.52464937429E12,0.0,
431295.5017089844,128.0,1.2459011371017858,54.833713750089856,89.97300884791184,0.390625,100.0,1.52464937429E12,0.0,
431296.4782714844,128.0,1.3966353412431887,54.76664063532837,89.97300884791184,0.390625,100.0,1.524649374291E12,0.0,
431297.4548339844,128.0,1.4280082497606577,54.81640455918367,89.97300884791184,0.390625,100.0,1.524649374292E12,0.0,
431298.4313964844,128.0,1.4056505448401624,54.67504616678312,89.97300884791184,0.390625,100.0,1.524649374293E12,0.0,
431299.4079589844,128.0,1.150700587117742,54.62888832436661,89.97300884791184,0.390625,100.0,1.524649374293E12,0.0,
431300.3845214844,128.0,0.8741141407625843,54.5708304132021,89.97300884791184,0.390625,100.0,1.524649374293E12,0.0,
431301.3610839844,128.0,0.5445182972572205,54.54883331642549,89.97300884791184,0.390625,100.0,1.524649374293E12,0.0,
431302.3376464844,128.0,0.2553105658662994,54.6000396728563,89.97300884791184,0.390625,100.0,1.524649374293E12,0.0,
431303.3142089844,128.0,0.20843150716203537,54.673243126063724,89.97300884791184,0.390625,100.0,1.524649374293E12,0.0,
431304.2907714844,128.0,0.2105951560253091,54.68081589708518,89.97300884791184,0.390625,100.0,1.524649374294E12,0.0,
431305.2673339844,128.0,0.21348002117634074,54.721204009199624,89.97300884791184,0.390625,100.0,1.524649374294E12,0.0,
431306.2438964844,128.0,0.23078921208253053,54.699928128710766,89.97300884791184,0.390625,100.0,1.524649374294E12,0.0,
431307.2204589844,128.0,0.2051860338671248,54.66350670617899,89.97300884791184,0.390625,100.0,1.524649374294E12,0.0,
431308.1970214844,128.0,0.2152830618957355,54.7165161033292,89.97300884791184,0.390625,100.0,1.524649374294E12,0.0,
431309.1735839844,128.0,0.2787500952184314,54.72985860465272,89.97300884791184,0.390625,100.0,1.524649374294E12,0.0,
431310.1501464844,128.0,0.31661395032572154,54.72733434764557,89.97300884791184,0.390625,100.0,1.524649374294E12,0.0,
431311.1267089844,128.0,0.3436595611166431,54.73238286165987,89.97300884791184,0.390625,100.0,1.524649374295E12,0.0,
431312.1032714844,128.0,0.36385361717386455,54.72517069878229,89.97300884791184,0.390625,100.0,1.524649374295E12,0.0,
431313.0798339844,128.0,0.5189151190418148,54.7626739457457,89.97300884791184,0.390625,100.0,1.524649374295E12,0.0,
431314.0563964844,128.0,0.8308411634971099,54.86761091561448,89.97300884791184,0.390625,100.0,1.524649374344E12,0.0,
431315.0329589844,128.0,1.1063457854206307,54.89321409382988,89.97300884791184,0.390625,100.0,1.524649374344E12,0.0,
431316.0095214844,128.0,1.3111712111438765,54.837680439672525,89.97300884791184,0.390625,100.0,1.524649374344E12,0.0,
431316.9860839844,128.0,1.3995202063942203,54.827583411643914,89.97300884791184,0.390625,100.0,1.524649374345E12,0.0,
431317.9626464844,128.0,1.402044463401373,54.80594692301118,89.97300884791184,0.390625,100.0,1.524649374345E12,0.0,
431318.9392089844,128.0,1.276913437475376,54.79440746240705,89.97300884791184,0.390625,100.0,1.524649374345E12,0.0,
431319.9157714844,128.0,1.001048207407976,54.75437995843649,89.97300884791184,0.390625,100.0,1.524649374377E12,0.0,
431320.8923339844,128.0,0.7176102063191183,54.72300704991902,89.97300884791184,0.390625,100.0,1.524649374378E12,0.0,
431321.8688964844,128.0,0.3844082813749649,54.64006717682686,89.97300884791184,0.390625,100.0,1.524649374378E12,0.0,
431322.8454589844,128.0,0.2654075938949101,54.6685552201933,89.97300884791184,0.390625,100.0,1.524649374378E12,0.0,
431323.8220214844,128.0,0.24557414598156763,54.77745887964474,89.97300884791184,0.390625,100.0,1.524649374378E12,0.0,
431324.7985839844,128.0,0.25567117401017836,54.745004146695635,89.97300884791184,0.390625,100.0,1.524649374378E12,0.0,
431325.7751464844,128.0,0.2607196880244837,54.75726482358752,89.97300884791184,0.390625,100.0,1.524649374387E12,0.0,
431326.7517089844,128.0,0.2513438762836309,54.75798603987528,89.97300884791184,0.390625,100.0,1.524649374388E12,0.0,
431327.7282714844,128.0,0.2527863088591467,54.79837415198972,89.97300884791184,0.390625,100.0,1.524649374388E12,0.0,
431328.7048339844,128.0,0.2856016499521315,54.75041326885382,89.97300884791184,0.390625,100.0,1.524649374388E12,0.0,
431329.6813964844,128.0,0.34185652039724834,54.75726482358752,89.97300884791184,0.390625,100.0,1.524649374388E12,0.0,
431330.6579589844,128.0,0.3674596986126541,54.78214678551517,89.97300884791184,0.390625,100.0,1.524649374388E12,0.0,
431331.6345214844,128.0,0.39198105239642295,54.73346468609151,89.97300884791184,0.390625,100.0,1.52464937439E12,0.0,
431332.6110839844,128.0,0.43958132738844485,54.82289550577349,89.97300884791184,0.390625,100.0,1.52464937439E12,0.0,
431333.5876464844,128.0,0.6689281068954596,54.847416859557256,89.97300884791184,0.390625,100.0,1.52464937439E12,0.0,
431334.5642089844,128.0,0.8723111000431896,54.83263192565822,89.97300884791184,0.390625,100.0,1.52464937439E12,0.0,
431335.5407714844,128.0,1.0197998308896818,54.83551679080925,89.97300884791184,0.390625,100.0,1.52464937439E12,0.0,
431336.5173339844,128.0,1.089036594514441,54.76087090502631,89.97300884791184,0.390625,100.0,1.524649374391E12,0.0,
431337.4938964844,128.0,1.0861517293634093,54.810274220737725,89.97300884791184,0.390625,100.0,1.52464937441E12,0.0,
431338.4704589844,128.0,1.049730306831635,54.778901312220256,89.97300884791184,0.390625,100.0,1.52464937441E12,0.0,
431339.4470214844,128.0,0.884932385078953,54.796210503126446,89.97300884791184,0.390625,100.0,1.52464937441E12,0.0,
431340.4235839844,128.0,0.7327557483620344,54.78899834024887,89.97300884791184,0.390625,100.0,1.52464937441E12,0.0,
431341.4001464844,128.0,0.5636305288828051,54.7850316506662,89.97300884791184,0.390625,100.0,1.524649374411E12,0.0,
431342.3767089844,128.0,0.4518420042803293,54.6822583296607,89.97300884791184,0.390625,100.0,1.524649374411E12,0.0,
431343.3532714844,128.0,0.4601359915895452,54.73887380824969,89.97300884791184,0.390625,100.0,1.524649374411E12,0.0,
431344.3298339844,128.0,0.4713148440497928,54.76303455388958,89.97300884791184,0.390625,100.0,1.524649374411E12,0.0,
431345.3063964844,128.0,0.47167545219367174,54.78683469138559,89.97300884791184,0.390625,100.0,1.524649374411E12,0.0,
431346.2829589844,128.0,0.4785270069273719,54.71940096848023,89.97300884791184,0.390625,100.0,1.524649374411E12,0.0,
431347.2595214844,128.0,0.4745603173447034,54.74788901184667,89.97300884791184,0.390625,100.0,1.524649374411E12,0.0,
431348.2360839844,128.0,0.4972786304090775,54.66530974689839,89.97300884791184,0.390625,100.0,1.524649374412E12,0.0,
431349.2126464844,128.0,0.532978836653094,54.6685552201933,89.97300884791184,0.390625,100.0,1.524649374412E12,0.0,
431350.1892089844,128.0,0.5355030936602466,54.67035826091269,89.97300884791184,0.390625,100.0,1.524649374412E12,0.0,
431351.1657714844,128.0,0.5549759334297101,54.66098244917184,89.97300884791184,0.390625,100.0,1.524649374412E12,0.0,
431352.1423339844,128.0,0.5657941777460788,54.71146758931489,89.97300884791184,0.390625,100.0,1.524649374412E12,0.0,
431353.1188964844,128.0,0.6548643892841803,54.77168914934268,89.97300884791184,0.390625,100.0,1.524649374412E12,0.0,
431354.0954589844,128.0,0.7464588578294347,54.789358948392746,89.97300884791184,0.390625,100.0,1.524649374412E12,0.0,
431355.0720214844,128.0,0.8027137282745515,54.77168914934268,89.97300884791184,0.390625,100.0,1.524649374413E12,0.0,
431356.0485839844,128.0,0.8333654205042625,54.76736185161613,89.97300884791184,0.390625,100.0,1.524649374413E12,0.0,
431357.0251464844,128.0,0.8250714331950466,54.74752840370279,89.97300884791184,0.390625,100.0,1.524649374413E12,0.0,
431358.0017089844,128.0,0.8023531201306725,54.762313337601825,89.97300884791184,0.390625,100.0,1.524649374413E12,0.0,
431358.9782714844,128.0,0.7251829773405764,54.779261920364135,89.97300884791184,0.390625,100.0,1.524649374413E12,0.0,
431359.9548339844,128.0,0.6375551983779906,54.77457401449371,89.97300884791184,0.390625,100.0,1.524649374413E12,0.0,
431360.9313964844,128.0,0.5528122845664364,54.77457401449371,89.97300884791184,0.390625,100.0,1.524649374413E12,0.0,
431361.9079589844,128.0,0.4673481544671243,54.786113475097835,89.97300884791184,0.390625,100.0,1.524649374414E12,0.0,
431362.8845214844,128.0,0.49619680597744065,54.813519694032635,89.97300884791184,0.390625,100.0,1.524649374414E12,0.0,
431363.8610839844,128.0,0.5080968747254461,54.82830462793167,89.97300884791184,0.390625,100.0,1.524649374414E12,0.0,
431364.8376464844,128.0,0.5257666737755149,54.79152259725602,89.97300884791184,0.390625,100.0,1.524649374414E12,0.0,
431365.8142089844,128.0,0.5275697144949096,54.85030172470829,89.97300884791184,0.390625,100.0,1.524649374414E12,0.0,
431366.7907714844,128.0,0.516751470178541,54.847416859557256,89.97300884791184,0.390625,100.0,1.524649374414E12,0.0,
431367.7673339844,128.0,0.5275697144949096,54.80198023342851,89.97300884791184,0.390625,100.0,1.524649374415E12,0.0,
431368.7438964844,128.0,0.5538941089980732,54.796571111270325,89.97300884791184,0.390625,100.0,1.524649374415E12,0.0,
431369.7204589844,128.0,0.5650729614583209,54.743922322264,89.97300884791184,0.390625,100.0,1.524649374415E12,0.0,
431370.6970214844,128.0,0.5690396510409893,54.79440746240705,89.97300884791184,0.390625,100.0,1.524649374415E12,0.0,
431371.6735839844,128.0,0.571924516192021,54.79404685426317,89.97300884791184,0.390625,100.0,1.524649374415E12,0.0,
431372.6501464844,128.0,0.6083459387237953,54.85643206315423,89.97300884791184,0.390625,100.0,1.524649374415E12,0.0,
431373.6267089844,128.0,0.712922300448692,54.77313158191819,89.97300884791184,0.390625,100.0,1.524649374415E12,0.0,
431374.6032714844,128.0,0.7738650767642352,54.799816584565235,89.97300884791184,0.390625,100.0,1.524649374416E12,0.0,
431375.5798339844,128.0,0.8149744051664359,54.87013517262163,89.97300884791184,0.390625,100.0,1.524649374416E12,0.0,
431376.5563964844,128.0,0.8189410947491044,54.77745887964474,89.97300884791184,0.390625,100.0,1.524649374416E12,0.0,
431377.5329589844,128.0,0.8005500794112778,54.851383549139925,89.97300884791184,0.390625,100.0,1.524649374416E12,0.0,
431378.5095214844,128.0,0.7659316975988982,54.75005266070994,89.97300884791184,0.390625,100.0,1.524649374416E12,0.0,
431379.4860839844,128.0,0.6710917557587333,54.77313158191819,89.97300884791184,0.390625,100.0,1.524649374416E12,0.0,
431380.4626464844,128.0,0.5975276944074267,54.834074358233735,89.97300884791184,0.390625,100.0,1.524649374416E12,0.0,
431381.4392089844,128.0,0.5149484294591462,54.75257691771709,89.97300884791184,0.390625,100.0,1.524649374417E12,0.0,
431382.4157714844,128.0,0.4994422792723512,54.75978908059467,89.97300884791184,0.390625,100.0,1.524649374417E12,0.0,
431383.3923339844,128.0,0.5189151190418148,54.76375577017734,89.97300884791184,0.390625,100.0,1.524649374417E12,0.0,
431384.3688964844,128.0,0.5304545796459412,54.77998313665189,89.97300884791184,0.390625,100.0,1.524649374417E12,0.0,
431385.3454589844,128.0,0.532257620365336,54.74284049783236,89.97300884791184,0.390625,100.0,1.524649374417E12,0.0,
431386.3220214844,128.0,0.532618228509215,54.81965003247858,89.97300884791184,0.390625,100.0,1.524649374417E12,0.0,
431387.2985839844,128.0,0.5279303226387886,54.77709827150086,89.97300884791184,0.390625,100.0,1.524649374417E12,0.0,
431388.2751464844,128.0,0.5380273506673993,54.7695255004794,89.97300884791184,0.390625,100.0,1.524649374418E12,0.0,
431389.2517089844,128.0,0.570842691760384,54.86797152375836,89.97300884791184,0.390625,100.0,1.524649374418E12,0.0,
431390.2282714844,128.0,0.570842691760384,54.76736185161613,89.97300884791184,0.390625,100.0,1.524649374418E12,0.0,
431391.2048339844,128.0,0.578776070925721,54.79729232755808,89.97300884791184,0.390625,100.0,1.524649374418E12,0.0,
431392.1813964844,128.0,0.5802185035012369,54.745004146695635,89.97300884791184,0.390625,100.0,1.524649374418E12,0.0,
431393.1579589844,128.0,0.6649614173127911,54.858595712017504,89.97300884791184,0.390625,100.0,1.524649374418E12,0.0,
431394.1345214844,128.0,0.744295208966161,54.81892881619082,89.97300884791184,0.390625,100.0,1.524649374418E12,0.0,
431395.1110839844,128.0,0.7947803491092145,54.81099543702548,89.97300884791184,0.390625,100.0,1.524649374419E12,0.0,
431396.0876464844,128.0,0.8106471074398884,54.779622528508014,89.97300884791184,0.390625,100.0,1.524649374419E12,0.0,
431397.0642089844,128.0,0.7976652142602462,54.799816584565235,89.97300884791184,0.390625,100.0,1.524649374419E12,0.0,
431398.0407714844,128.0,0.783240888505088,54.700288736854645,89.97300884791184,0.390625,100.0,1.524649374419E12,0.0,
431399.0173339844,128.0,0.705349529427234,54.69487961469646,89.97300884791184,0.390625,100.0,1.524649374419E12,0.0,
431399.9938964844,128.0,0.6335885087953221,54.6480005559922,89.97300884791184,0.390625,100.0,1.524649374422E12,0.0,
431400.9704589844,128.0,0.5596638393001365,54.63790352796359,89.97300884791184,0.390625,100.0,1.524649374423E12,0.0,
431401.9470214844,128.0,0.493311940826409,54.66098244917184,89.97300884791184,0.390625,100.0,1.524649374423E12,0.0,
431402.9235839844,128.0,0.5127847805958725,54.72949799650884,89.97300884791184,0.390625,100.0,1.524649374423E12,0.0,
431403.9001464844,128.0,0.5297333633581833,54.696682655415856,89.97300884791184,0.390625,100.0,1.524649374423E12,0.0,
431404.8767089844,128.0,0.5387485669551572,54.79224381354378,89.97300884791184,0.390625,100.0,1.524649374423E12,0.0,
431405.8532714844,128.0,0.540190999530673,54.74788901184667,89.97300884791184,0.390625,100.0,1.524649374425E12,0.0,
431406.8298339844,128.0,0.5293727552143044,54.796571111270325,89.97300884791184,0.390625,100.0,1.524649374425E12,0.0,
431407.8063964844,128.0,0.5391091750990361,54.67576738307088,89.97300884791184,0.390625,100.0,1.524649374425E12,0.0,
431408.7829589844,128.0,0.5603850555878944,54.78394982623456,89.97300884791184,0.390625,100.0,1.524649374425E12,0.0,
431409.7595214844,128.0,0.5744487731991736,54.792604421687656,89.97300884791184,0.390625,100.0,1.524649374425E12,0.0,
431410.7360839844,128.0,0.5730063406236579,54.81135604516936,89.97300884791184,0.390625,100.0,1.524649374432E12,0.0,
431411.7126464844,128.0,0.5784154627818421,54.810274220737725,89.97300884791184,0.390625,100.0,1.524649374432E12,0.0,
431412.6892089844,128.0,0.6159187097452533,54.79116198911214,89.97300884791184,0.390625,100.0,1.524649374433E12,0.0,
431413.6657714844,128.0,0.7103980434415392,54.793325637975414,89.97300884791184,0.390625,100.0,1.524649374433E12,0.0,
431414.6423339844,128.0,0.7666529138866561,54.83515618266537,89.97300884791184,0.390625,100.0,1.524649374433E12,0.0,
431415.6188964844,128.0,0.7976652142602462,54.84381077811847,89.97300884791184,0.390625,100.0,1.524649374433E12,0.0,
431416.5954589844,128.0,0.8081228504327358,54.81460151846427,89.97300884791184,0.390625,100.0,1.524649374438E12,0.0,
431417.5720214844,128.0,0.7929773083898197,54.75726482358752,89.97300884791184,0.390625,100.0,1.524649374439E12,0.0,
431418.5485839844,128.0,0.7543922369947716,54.786113475097835,89.97300884791184,0.390625,100.0,1.524649374439E12,0.0,
431419.5251464844,128.0,0.6613553358740015,54.75978908059467,89.97300884791184,0.390625,100.0,1.52464937444E12,0.0,
431420.5017089844,128.0,0.6054610735727637,54.76411637832122,89.97300884791184,0.390625,100.0,1.52464937444E12,0.0,
431421.4782714844,128.0,0.5203575516173305,54.73671015938642,89.97300884791184,0.390625,100.0,1.52464937444E12,0.0,
431422.4548339844,128.0,0.5127847805958725,54.78467104252232,89.97300884791184,0.390625,100.0,1.524649374461E12,0.0,
431423.4313964844,128.0,0.5308151877898202,54.796931719414204,89.97300884791184,0.390625,100.0,1.524649374461E12,0.0,
431424.4079589844,128.0,0.5369455262357624,54.78178617737129,89.97300884791184,0.390625,100.0,1.524649374462E12,0.0,
431425.3845214844,128.0,0.5423546483939468,54.789719556536625,89.97300884791184,0.390625,100.0,1.524649374462E12,0.0,
431426.3610839844,128.0,0.540190999530673,54.77781948778862,89.97300884791184,0.390625,100.0,1.524649374462E12,0.0,
431427.3376464844,128.0,0.5423546483939468,54.74680718741503,89.97300884791184,0.390625,100.0,1.524649374462E12,0.0,
431428.3142089844,128.0,0.5531728927103153,54.70317360200568,89.97300884791184,0.390625,100.0,1.524649374462E12,0.0,
431429.2907714844,128.0,0.5813003279328738,54.8329925338021,89.97300884791184,0.390625,100.0,1.524649374462E12,0.0,
431430.2673339844,128.0,0.5852670175155422,54.76051029688243,89.97300884791184,0.390625,100.0,1.524649374462E12,0.0,
431431.2438964844,128.0,0.5870700582349371,54.730940429084356,89.97300884791184,0.390625,100.0,1.524649374463E12,0.0,
431432.2204589844,128.0,0.5968064781196688,54.72733434764557,89.97300884791184,0.390625,100.0,1.524649374463E12,0.0,
431433.1970214844,128.0,0.6783039186363123,54.70569785901283,89.97300884791184,0.390625,100.0,1.524649374463E12,0.0,
431434.1735839844,128.0,0.7482618985488294,54.80486509857954,89.97300884791184,0.390625,100.0,1.524649374463E12,0.0,
431435.1501464844,128.0,0.7936985246775776,54.772049757486556,89.97300884791184,0.390625,100.0,1.524649374463E12,0.0,
431436.1267089844,128.0,0.8055985934255832,54.7352677268109,89.97300884791184,0.390625,100.0,1.524649374463E12,0.0,
431437.1032714844,128.0,0.7951409572530934,54.76700124347225,89.97300884791184,0.390625,100.0,1.524649374463E12,0.0,
431438.0798339844,128.0,0.7760287256275089,54.73202225351599,89.97300884791184,0.390625,100.0,1.524649374464E12,0.0,
431439.0563964844,128.0,0.7006616235568075,54.85066233285217,89.97300884791184,0.390625,100.0,1.524649374464E12,0.0,
431440.0329589844,128.0,0.6353915495147169,54.734907118667024,89.97300884791184,0.390625,100.0,1.524649374464E12,0.0,
431441.0095214844,128.0,0.564351745170563,54.806307531155056,89.97300884791184,0.390625,100.0,1.524649374464E12,0.0,
431441.9860839844,128.0,0.5091786991570829,54.77313158191819,89.97300884791184,0.390625,100.0,1.524649374464E12,0.0,
431442.9626464844,128.0,0.5293727552143044,54.7215646173435,89.97300884791184,0.390625,100.0,1.524649374464E12,0.0,
431443.9392089844,128.0,0.547763770552131,54.79729232755808,89.97300884791184,0.390625,100.0,1.524649374464E12,0.0,
431444.9157714844,128.0,0.5492062031276469,54.703894818293435,89.97300884791184,0.390625,100.0,1.524649374465E12,0.0,
431445.8923339844,128.0,0.5546153252858311,54.710746373027135,89.97300884791184,0.390625,100.0,1.524649374465E12,0.0,
431446.8688964844,128.0,0.5549759334297101,54.66386731432287,89.97300884791184,0.390625,100.0,1.524649374465E12,0.0,
431447.8454589844,128.0,0.5549759334297101,54.618070080050245,89.97300884791184,0.390625,100.0,1.524649374465E12,0.0,
431448.8220214844,128.0,0.5704820836165051,54.63610048724419,89.97300884791184,0.390625,100.0,1.524649374465E12,0.0,
431449.7985839844,128.0,0.5852670175155422,54.64944298856771,89.97300884791184,0.390625,100.0,1.524649374465E12,0.0,
431450.7751464844,128.0,0.5906761396737266,54.56758493990719,89.97300884791184,0.390625,100.0,1.524649374465E12,0.0,
431451.7517089844,128.0,0.5964458699757899,54.69091292511379,89.97300884791184,0.390625,100.0,1.524649374466E12,0.0,
431452.7282714844,128.0,0.6400794553851432,54.68189772151682,89.97300884791184,0.390625,100.0,1.524649374466E12,0.0,
431453.7048339844,128.0,0.7273466262038502,54.6599006247402,89.97300884791184,0.390625,100.0,1.524649374466E12,0.0,
431454.6813964844,128.0,0.7738650767642352,54.69524022284034,89.97300884791184,0.390625,100.0,1.524649374466E12,0.0,
431455.6579589844,128.0,0.8074016341449779,54.71507367075368,89.97300884791184,0.390625,100.0,1.524649374466E12,0.0,
431456.6345214844,128.0,0.8074016341449779,54.63321562209316,89.97300884791184,0.390625,100.0,1.524649374466E12,0.0,
431457.6110839844,128.0,0.7922560921020618,54.73562833495478,89.97300884791184,0.390625,100.0,1.524649374467E12,0.0,
431458.5876464844,128.0,0.7572771021458032,54.69884630427913,89.97300884791184,0.390625,100.0,1.524649374467E12,0.0,
431459.5642089844,128.0,0.6710917557587333,54.724088874350656,89.97300884791184,0.390625,100.0,1.524649374467E12,0.0,
431460.5407714844,128.0,0.610870195730948,54.703534210149556,89.97300884791184,0.390625,100.0,1.524649374467E12,0.0,
431461.5173339844,128.0,0.5337000529408519,54.655933935157535,89.97300884791184,0.390625,100.0,1.524649374467E12,0.0,
431462.4938964844,128.0,0.5347818773724887,54.66530974689839,89.97300884791184,0.390625,100.0,1.524649374467E12,0.0,
431463.4704589844,128.0,0.547763770552131,54.62383981035231,89.97300884791184,0.390625,100.0,1.524649374467E12,0.0,
431464.4470214844,128.0,0.5585820148684997,54.75293752586097,89.97300884791184,0.390625,100.0,1.524649374468E12,0.0,
431465.4235839844,128.0,0.564351745170563,54.68081589708518,89.97300884791184,0.390625,100.0,1.524649374468E12,0.0,
431466.4001464844,128.0,0.5582214067246207,54.75437995843649,89.97300884791184,0.390625,100.0,1.524649374468E12,0.0,
431467.3767089844,128.0,0.5665153940338367,54.79729232755808,89.97300884791184,0.390625,100.0,1.524649374468E12,0.0,
431468.3532714844,128.0,0.5744487731991736,54.706779683444466,89.97300884791184,0.390625,100.0,1.524649374468E12,0.0,
431469.3298339844,128.0,0.5910367478176055,54.858235103873625,89.97300884791184,0.390625,100.0,1.524649374468E12,0.0,
431470.3063964844,128.0,0.5932003966808792,54.7421192815446,89.97300884791184,0.390625,100.0,1.524649374468E12,0.0,
431471.2829589844,128.0,0.5950034374002741,54.806307531155056,89.97300884791184,0.390625,100.0,1.524649374469E12,0.0,
431472.2595214844,128.0,0.610870195730948,54.7576254317314,89.97300884791184,0.390625,100.0,1.524649374469E12,0.0,
431473.2360839844,128.0,0.6948918932547442,54.730940429084356,89.97300884791184,0.390625,100.0,1.524649374469E12,0.0,
431474.2126464844,128.0,0.7536710207070138,54.74752840370279,89.97300884791184,0.390625,100.0,1.524649374469E12,0.0,
431475.1892089844,128.0,0.8052379852817042,54.71182819745877,89.97300884791184,0.390625,100.0,1.524649374469E12,0.0,
431476.1657714844,128.0,0.814253188878678,54.78755590767335,89.97300884791184,0.390625,100.0,1.524649374469E12,0.0,
431477.1423339844,128.0,0.8041561608500672,54.76483759460898,89.97300884791184,0.390625,100.0,1.524649374469E12,0.0,
431478.1188964844,128.0,0.7864863617999985,54.6736037342076,89.97300884791184,0.390625,100.0,1.52464937447E12,0.0,
431479.0954589844,128.0,0.7082343945782655,54.782507393659046,89.97300884791184,0.390625,100.0,1.524649374478E12,0.0,
431480.0720214844,128.0,0.6393582390973853,54.752216309573214,89.97300884791184,0.390625,100.0,1.524649374479E12,0.0,
431481.0485839844,128.0,0.5755305976308105,54.74933144442218,89.97300884791184,0.390625,100.0,1.524649374479E12,0.0,
431482.0251464844,128.0,0.5228818086244832,54.73310407794763,89.97300884791184,0.390625,100.0,1.524649374479E12,0.0,
431483.0017089844,128.0,0.5419940402500678,54.70641907530059,89.97300884791184,0.390625,100.0,1.524649374479E12,0.0,
431483.9782714844,128.0,0.555697149717468,54.77096793305492,89.97300884791184,0.390625,100.0,1.524649374479E12,0.0,
431484.9548339844,128.0,0.5704820836165051,54.768804284191646,89.97300884791184,0.390625,100.0,1.524649374481E12,0.0,
431485.9313964844,128.0,0.5661547858899577,54.6941583984087,89.97300884791184,0.390625,100.0,1.524649374481E12,0.0,
431486.9079589844,128.0,0.5600244474440155,54.7302192127966,89.97300884791184,0.390625,100.0,1.524649374481E12,0.0,
431487.8845214844,128.0,0.5629093125950471,54.73346468609151,89.97300884791184,0.390625,100.0,1.524649374481E12,0.0,
431488.8610839844,128.0,0.5881518826665739,54.76772245976001,89.97300884791184,0.390625,100.0,1.524649374482E12,0.0,
431489.8376464844,128.0,0.5939216129686371,54.75329813400485,89.97300884791184,0.390625,100.0,1.524649374482E12,0.0,
431490.8142089844,128.0,0.6069035061482795,54.67180069348821,89.97300884791184,0.390625,100.0,1.524649374482E12,0.0,
431491.7907714844,128.0,0.6123126283064638,54.64439447455341,89.97300884791184,0.390625,100.0,1.524649374484E12,0.0,
431492.7673339844,128.0,0.657749254435212,54.75401935029261,89.97300884791184,0.390625,100.0,1.524649374484E12,0.0,
431493.7438964844,128.0,0.7338375727936712,54.76123151317019,89.97300884791184,0.390625,100.0,1.524649374484E12,0.0,
431494.7204589844,128.0,0.7796348070662984,54.680094680797424,89.97300884791184,0.390625,100.0,1.524649374484E12,0.0,
431495.6970214844,128.0,0.8138925807347991,54.7302192127966,89.97300884791184,0.390625,100.0,1.524649374484E12,0.0,
431496.6735839844,128.0,0.8113683237276463,54.72192522548738,89.97300884791184,0.390625,100.0,1.524649374486E12,0.0,
431497.6501464844,128.0,0.798747038691883,54.734546510523145,89.97300884791184,0.390625,100.0,1.524649374486E12,0.0,
431498.6267089844,128.0,0.7493437229804663,54.65016420485547,89.97300884791184,0.390625,100.0,1.524649374486E12,0.0,
431499.6032714844,128.0,0.6714523639026122,54.64331265012177,89.97300884791184,0.390625,100.0,1.524649374487E12,0.0,
431500.5798339844,128.0,0.6130338445942217,54.665670355042266,89.97300884791184,0.390625,100.0,1.524649374487E12,0.0,
431501.5563964844,128.0,0.5365849180918835,54.67432495049536,89.97300884791184,0.390625,100.0,1.524649374489E12,0.0,
431502.5329589844,128.0,0.5437970809694626,54.71976157662411,89.97300884791184,0.390625,100.0,1.524649374489E12,0.0,
431503.5095214844,128.0,0.5603850555878944,54.675406774927,89.97300884791184,0.390625,100.0,1.524649374489E12,0.0,
431504.4860839844,128.0,0.5690396510409893,54.66098244917184,89.97300884791184,0.390625,100.0,1.524649374489E12,0.0,
431505.4626464844,128.0,0.5694002591848683,54.69956752056689,89.97300884791184,0.390625,100.0,1.524649374489E12,0.0,
431506.4392089844,128.0,0.5672366103215946,54.77024671676716,89.97300884791184,0.390625,100.0,1.524649374489E12,0.0,
431507.4157714844,128.0,0.564351745170563,54.73671015938642,89.97300884791184,0.390625,100.0,1.52464937449E12,0.0,
431508.3923339844,128.0,0.5751699894869315,54.76772245976001,89.97300884791184,0.390625,100.0,1.52464937449E12,0.0,
431509.3688964844,128.0,0.594282221112516,54.76988610862328,89.97300884791184,0.390625,100.0,1.52464937449E12,0.0,
431510.3454589844,128.0,0.5960852618319109,54.76628002718449,89.97300884791184,0.390625,100.0,1.52464937449E12,0.0,
431511.3220214844,128.0,0.6087065468676742,54.755101174724246,89.97300884791184,0.390625,100.0,1.52464937449E12,0.0,
431512.2985839844,128.0,0.619164183040164,54.71291002189041,89.97300884791184,0.390625,100.0,1.52464937449E12,0.0,
431513.2751464844,128.0,0.6956131095425021,54.7165161033292,89.97300884791184,0.390625,100.0,1.52464937449E12,0.0,
431514.2517089844,128.0,0.7601619672968349,54.669276436481056,89.97300884791184,0.390625,100.0,1.524649374491E12,0.0,
431515.2282714844,128.0,0.7951409572530934,54.7695255004794,89.97300884791184,0.390625,100.0,1.524649374491E12,0.0,
431516.2048339844,128.0,0.807041026001099,54.79044077282438,89.97300884791184,0.390625,100.0,1.524649374491E12,0.0,
431517.1813964844,128.0,0.7940591328214566,54.76628002718449,89.97300884791184,0.390625,100.0,1.524649374491E12,0.0,
431518.1579589844,128.0,0.7738650767642352,54.76051029688243,89.97300884791184,0.390625,100.0,1.524649374491E12,0.0,
431519.1345214844,128.0,0.7035464887078392,54.68442197852397,89.97300884791184,0.390625,100.0,1.524649374498E12,0.0,
431520.1110839844,128.0,0.6444067531116907,54.840565304823556,89.97300884791184,0.390625,100.0,1.524649374498E12,0.0,
431521.0876464844,128.0,0.5762518139185684,54.690191708826035,89.97300884791184,0.390625,100.0,1.524649374498E12,0.0,
431522.0642089844,128.0,0.5300939715020623,54.796571111270325,89.97300884791184,0.390625,100.0,1.524649374499E12,0.0,
431523.0407714844,128.0,0.5502880275592837,54.75365874214873,89.97300884791184,0.390625,100.0,1.524649374499E12,0.0,
431524.0173339844,128.0,0.5668760021777156,54.73418590237927,89.97300884791184,0.390625,100.0,1.524649374499E12,0.0,
431524.9938964844,128.0,0.5600244474440155,54.71904036033635,89.97300884791184,0.390625,100.0,1.524649374501E12,0.0,
431525.9704589844,128.0,0.5730063406236579,54.78358921809068,89.97300884791184,0.390625,100.0,1.524649374501E12,0.0,
431526.9470214844,128.0,0.563991137026684,54.67576738307088,89.97300884791184,0.390625,100.0,1.524649374501E12,0.0,
431527.9235839844,128.0,0.5751699894869315,54.82181368134185,89.97300884791184,0.390625,100.0,1.524649374501E12,0.0,
431528.9001464844,128.0,0.5899549233859687,54.71507367075368,89.97300884791184,0.390625,100.0,1.524649374502E12,0.0,
431529.8767089844,128.0,0.5924791803931213,54.72877678022108,89.97300884791184,0.390625,100.0,1.524649374502E12,0.0,
431530.8532714844,128.0,0.5996913432707004,54.744643538551756,89.97300884791184,0.390625,100.0,1.524649374524E12,0.0,
431531.8298339844,128.0,0.6083459387237953,54.686585627387245,89.97300884791184,0.390625,100.0,1.524649374524E12,0.0,
431532.8063964844,128.0,0.6555856055719382,54.827222803500035,89.97300884791184,0.390625,100.0,1.524649374524E12,0.0,
431533.7829589844,128.0,0.7374436542324608,54.803783274147904,89.97300884791184,0.390625,100.0,1.524649374524E12,0.0,
431534.7595214844,128.0,0.7796348070662984,54.75726482358752,89.97300884791184,0.390625,100.0,1.524649374524E12,0.0,
431535.7360839844,128.0,0.8005500794112778,54.82217428948573,89.97300884791184,0.390625,100.0,1.524649374528E12,0.0,
431536.7126464844,128.0,0.8037955527061883,54.77060732491104,89.97300884791184,0.390625,100.0,1.524649374529E12,0.0,
431537.6892089844,128.0,0.7850439292244827,54.77096793305492,89.97300884791184,0.390625,100.0,1.524649374529E12,0.0,
431538.6657714844,128.0,0.736361829800824,54.79224381354378,89.97300884791184,0.390625,100.0,1.524649374529E12,0.0,
431539.6423339844,128.0,0.6620765521617594,54.70858272416386,89.97300884791184,0.390625,100.0,1.524649374529E12,0.0,
431540.6188964844,128.0,0.6036580328533689,54.717597927760835,89.97300884791184,0.390625,100.0,1.524649374529E12,0.0,
431541.5954589844,128.0,0.5358637018041256,54.70209177757404,89.97300884791184,0.390625,100.0,1.524649374533E12,0.0,
431542.5720214844,128.0,0.5412728239623099,54.72661313135781,89.97300884791184,0.390625,100.0,1.524649374534E12,0.0,
431543.5485839844,128.0,0.5567789741491049,54.69776447984749,89.97300884791184,0.390625,100.0,1.524649374534E12,0.0,
431544.5251464844,128.0,0.5582214067246207,54.75005266070994,89.97300884791184,0.390625,100.0,1.524649374534E12,0.0,
431545.5017089844,128.0,0.5647123533144419,54.82469854649288,89.97300884791184,0.390625,100.0,1.524649374534E12,0.0,
431546.4782714844,128.0,0.5650729614583209,54.7096645485955,89.97300884791184,0.390625,100.0,1.524649374534E12,0.0,
431547.4548339844,128.0,0.5600244474440155,54.69524022284034,89.97300884791184,0.390625,100.0,1.524649374536E12,0.0,
431548.4313964844,128.0,0.5733669487675368,54.655933935157535,89.97300884791184,0.390625,100.0,1.524649374536E12,0.0,
431549.4079589844,128.0,0.5885124908104529,54.60977609274103,89.97300884791184,0.390625,100.0,1.524649374536E12,0.0,
431550.3845214844,128.0,0.5913973559614845,54.67793103193415,89.97300884791184,0.390625,100.0,1.524649374537E12,0.0,
431551.3610839844,128.0,0.6007731677023372,54.693437182120945,89.97300884791184,0.390625,100.0,1.524649374537E12,0.0,
431552.3376464844,128.0,0.6195247911840429,54.710385764883256,89.97300884791184,0.390625,100.0,1.524649374537E12,0.0,
431553.3142089844,128.0,0.7031858805639601,54.755822391012,89.97300884791184,0.390625,100.0,1.524649374541E12,0.0,
431554.2907714844,128.0,0.7507861555559822,54.713631238178166,89.97300884791184,0.390625,100.0,1.524649374541E12,0.0,
431555.2673339844,128.0,0.7965833898286092,54.70641907530059,89.97300884791184,0.390625,100.0,1.524649374541E12,0.0,
431556.2438964844,128.0,0.8077622422888568,54.70930394045162,89.97300884791184,0.390625,100.0,1.524649374542E12,0.0,
431557.2204589844,128.0,0.791174267670425,54.75041326885382,89.97300884791184,0.390625,100.0,1.524649374542E12,0.0,
431558.1970214844,128.0,0.7680953464621719,54.72589191507005,89.97300884791184,0.390625,100.0,1.524649374542E12,0.0,
431559.1735839844,128.0,0.6905645955281968,54.71507367075368,89.97300884791184,0.390625,100.0,1.524649374545E12,0.0,
431560.1501464844,128.0,0.6353915495147169,54.7781800959325,89.97300884791184,0.390625,100.0,1.524649374545E12,0.0,
431561.1267089844,128.0,0.5657941777460788,54.74031624082521,89.97300884791184,0.390625,100.0,1.524649374545E12,0.0,
431562.1032714844,128.0,0.5387485669551572,54.745004146695635,89.97300884791184,0.390625,100.0,1.524649374545E12,0.0,
431563.0798339844,128.0,0.5578607985807418,54.80594692301118,89.97300884791184,0.390625,100.0,1.524649374546E12,0.0,
431564.0563964844,128.0,0.563269920738926,54.72949799650884,89.97300884791184,0.390625,100.0,1.524649374547E12,0.0,
431565.0329589844,128.0,0.5647123533144419,54.79801354384584,89.97300884791184,0.390625,100.0,1.524649374547E12,0.0,
431566.0095214844,128.0,0.571203299904263,54.77529523078147,89.97300884791184,0.390625,100.0,1.524649374548E12,0.0,
431566.9860839844,128.0,0.5654335696021998,54.74933144442218,89.97300884791184,0.390625,100.0,1.524649374548E12,0.0,
431567.9626464844,128.0,0.5737275569114157,54.790080164680504,89.97300884791184,0.390625,100.0,1.524649374548E12,0.0,
431568.9392089844,128.0,0.595364045544153,54.71182819745877,89.97300884791184,0.390625,100.0,1.524649374548E12,0.0,
431569.9157714844,128.0,0.5978883025513057,54.77529523078147,89.97300884791184,0.390625,100.0,1.524649374551E12,0.0,
431570.8923339844,128.0,0.6018549921339741,54.77493462263759,89.97300884791184,0.390625,100.0,1.524649374551E12,0.0,
431571.8688964844,128.0,0.6087065468676742,54.68261893780458,89.97300884791184,0.390625,100.0,1.524649374551E12,0.0,
431572.8454589844,128.0,0.6646008091689121,54.79080138096826,89.97300884791184,0.390625,100.0,1.524649374551E12,0.0,
431573.8220214844,128.0,0.7323951402181554,54.76772245976001,89.97300884791184,0.390625,100.0,1.524649374551E12,0.0,
431574.7985839844,128.0,0.7735044686203562,54.75401935029261,89.97300884791184,0.390625,100.0,1.524649374551E12,0.0,
431575.7751464844,128.0,0.7947803491092145,54.75365874214873,89.97300884791184,0.390625,100.0,1.524649374552E12,0.0,
431576.7517089844,128.0,0.790813659526546,54.751495093285456,89.97300884791184,0.390625,100.0,1.524649374552E12,0.0,
431577.7282714844,128.0,0.7745862930519931,54.77781948778862,89.97300884791184,0.390625,100.0,1.524649374553E12,0.0,
431578.7048339844,128.0,0.728067842491608,54.734907118667024,89.97300884791184,0.390625,100.0,1.524649374553E12,0.0,
431579.6813964844,128.0,0.6649614173127911,54.76339516203346,89.97300884791184,0.390625,100.0,1.524649374553E12,0.0,
431580.6579589844,128.0,0.6007731677023372,54.71291002189041,89.97300884791184,0.390625,100.0,1.524649374553E12,0.0,
431581.6345214844,128.0,0.5387485669551572,54.707140291588345,89.97300884791184,0.390625,100.0,1.524649374574E12,0.0,
431582.6110839844,128.0,0.5578607985807418,54.80847118001833,89.97300884791184,0.390625,100.0,1.524649374574E12,0.0,
431583.5876464844,128.0,0.5701214754726261,54.807028747442814,89.97300884791184,0.390625,100.0,1.524649374574E12,0.0,
431584.5642089844,128.0,0.5679578266093525,54.80774996373057,89.97300884791184,0.390625,100.0,1.524649374574E12,0.0,
431585.5407714844,128.0,0.5737275569114157,54.80955300444997,89.97300884791184,0.390625,100.0,1.524649374574E12,0.0,
431586.5173339844,128.0,0.5672366103215946,54.70641907530059,89.97300884791184,0.390625,100.0,1.524649374574E12,0.0,
431587.4938964844,128.0,0.571203299904263,54.76123151317019,89.97300884791184,0.390625,100.0,1.524649374575E12,0.0,
431588.4704589844,128.0,0.5859882338033001,54.74572536298339,89.97300884791184,0.390625,100.0,1.524649374575E12,0.0,
431589.4470214844,128.0,0.6018549921339741,54.77024671676716,89.97300884791184,0.390625,100.0,1.524649374575E12,0.0,
431590.4235839844,128.0,0.61014897944319,54.782868001802925,89.97300884791184,0.390625,100.0,1.524649374575E12,0.0,
431591.4001464844,128.0,0.6097883712993111,54.711106981171014,89.97300884791184,0.390625,100.0,1.524649374575E12,0.0,
431592.3767089844,128.0,0.627097562205501,54.77313158191819,89.97300884791184,0.390625,100.0,1.524649374575E12,0.0,
431593.3532714844,128.0,0.7071525701466287,54.78683469138559,89.97300884791184,0.390625,100.0,1.524649374575E12,0.0,
431594.3298339844,128.0,0.7590801428651981,54.77024671676716,89.97300884791184,0.390625,100.0,1.524649374576E12,0.0,
431595.3063964844,128.0,0.7951409572530934,54.81856820804694,89.97300884791184,0.390625,100.0,1.524649374576E12,0.0,
431596.2829589844,128.0,0.7969439979724883,54.796931719414204,89.97300884791184,0.390625,100.0,1.524649374576E12,0.0,
431597.2595214844,128.0,0.7846833210806038,54.69560083098422,89.97300884791184,0.390625,100.0,1.524649374576E12,0.0,
431598.2360839844,128.0,0.7612437917284718,54.62600345921558,89.97300884791184,0.390625,100.0,1.524649374576E12,0.0,
431599.2126464844,128.0,0.6801069593557071,54.7028129938618,89.97300884791184,0.390625,100.0,1.524649374576E12,0.0,
431600.1892089844,128.0,0.6328672925075641,54.63321562209316,89.97300884791184,0.390625,100.0,1.524649374577E12,0.0,
431601.1657714844,128.0,0.5603850555878944,54.70245238571792,89.97300884791184,0.390625,100.0,1.524649374577E12,0.0,
431602.1423339844,128.0,0.547403162408252,54.73238286165987,89.97300884791184,0.390625,100.0,1.524649374577E12,0.0,
431603.1188964844,128.0,0.563269920738926,54.679734072653545,89.97300884791184,0.390625,100.0,1.524649374577E12,0.0,
431604.0954589844,128.0,0.5722851243359,54.72949799650884,89.97300884791184,0.390625,100.0,1.524649374581E12,0.0,
431605.0720214844,128.0,0.5791366790696,54.75329813400485,89.97300884791184,0.390625,100.0,1.524649374581E12,0.0,
431606.0485839844,128.0,0.5780548546379631,54.69091292511379,89.97300884791184,0.390625,100.0,1.524649374581E12,0.0,
431607.0251464844,128.0,0.5748093813430526,54.796571111270325,89.97300884791184,0.390625,100.0,1.524649374582E12,0.0,
431608.0017089844,128.0,0.5856276256594212,54.72913738836496,89.97300884791184,0.390625,100.0,1.524649374582E12,0.0,
431608.9782714844,128.0,0.5982489106951846,54.78070435293965,89.97300884791184,0.390625,100.0,1.524649374582E12,0.0,
431609.9548339844,128.0,0.6043792491411268,54.69956752056689,89.97300884791184,0.390625,100.0,1.524649374586E12,0.0,
431610.9313964844,128.0,0.6087065468676742,54.803062057860146,89.97300884791184,0.390625,100.0,1.524649374586E12,0.0,
431611.9079589844,128.0,0.6180823586085271,54.71615549518532,89.97300884791184,0.390625,100.0,1.524649374586E12,0.0,
431612.8845214844,128.0,0.6721735801903701,54.7763770552131,89.97300884791184,0.390625,100.0,1.524649374586E12,0.0,
431613.8610839844,128.0,0.736361829800824,54.70569785901283,89.97300884791184,0.390625,100.0,1.524649374587E12,0.0,
431614.8376464844,128.0,0.7785529826346616,54.72589191507005,89.97300884791184,0.390625,100.0,1.524649374587E12,0.0,
431615.8142089844,128.0,0.7944197409653355,54.728055563933324,89.97300884791184,0.390625,100.0,1.524649374589E12,0.0,
431616.7907714844,128.0,0.7893712269510302,54.703894818293435,89.97300884791184,0.390625,100.0,1.524649374589E12,0.0,
431617.7673339844,128.0,0.7745862930519931,54.789719556536625,89.97300884791184,0.390625,100.0,1.524649374589E12,0.0,
431618.7438964844,128.0,0.7197738551823921,54.76628002718449,89.97300884791184,0.390625,100.0,1.524649374589E12,0.0,
431619.7204589844,128.0,0.657749254435212,54.70461603458119,89.97300884791184,0.390625,100.0,1.524649374589E12,0.0,
431620.6970214844,128.0,0.6011337758462162,54.76123151317019,89.97300884791184,0.390625,100.0,1.524649374589E12,0.0,
431621.6735839844,128.0,0.540912215818431,54.659179408452445,89.97300884791184,0.390625,100.0,1.524649374592E12,0.0,
431622.6501464844,128.0,0.5596638393001365,54.745364754839514,89.97300884791184,0.390625,100.0,1.524649374592E12,0.0,
431623.6267089844,128.0,0.5679578266093525,54.71218880560265,89.97300884791184,0.390625,100.0,1.524649374592E12,0.0,
431624.6032714844,128.0,0.5726457324797789,54.70569785901283,89.97300884791184,0.390625,100.0,1.524649374592E12,0.0,
431625.5798339844,128.0,0.579497287213479,54.78106496108353,89.97300884791184,0.390625,100.0,1.524649374593E12,0.0,
431626.5563964844,128.0,0.5730063406236579,54.77529523078147,89.97300884791184,0.390625,100.0,1.524649374593E12,0.0,
431627.5329589844,128.0,0.5755305976308105,54.70822211601998,89.97300884791184,0.390625,100.0,1.524649374594E12,0.0,
431628.5095214844,128.0,0.5899549233859687,54.74752840370279,89.97300884791184,0.390625,100.0,1.524649374594E12,0.0,
431629.4860839844,128.0,0.6040186409972479,54.69956752056689,89.97300884791184,0.390625,100.0,1.524649374594E12,0.0,
431630.4626464844,128.0,0.6054610735727637,54.82109246505409,89.97300884791184,0.390625,100.0,1.524649374594E12,0.0,
431631.4392089844,128.0,0.6072641142921584,54.699928128710766,89.97300884791184,0.390625,100.0,1.524649374594E12,0.0,
431632.4157714844,128.0,0.6335885087953221,54.71687671147308,89.97300884791184,0.390625,100.0,1.524649374594E12,0.0,
431633.3923339844,128.0,0.7085950027221445,54.812437869601,89.97300884791184,0.390625,100.0,1.524649374596E12,0.0,
431634.3688964844,128.0,0.7536710207070138,54.7370707675303,89.97300884791184,0.390625,100.0,1.524649374597E12,0.0,
431635.3454589844,128.0,0.7864863617999985,54.79440746240705,89.97300884791184,0.390625,100.0,1.524649374597E12,0.0,
431636.3220214844,128.0,0.783240888505088,54.74356171412012,89.97300884791184,0.390625,100.0,1.524649374597E12,0.0,
431637.2985839844,128.0,0.7735044686203562,54.817125775471425,89.97300884791184,0.390625,100.0,1.524649374597E12,0.0,
431638.2751464844,128.0,0.7468194659733136,54.7644769864651,89.97300884791184,0.390625,100.0,1.524649374597E12,0.0,
431639.2517089844,128.0,0.6754190534852808,54.76123151317019,89.97300884791184,0.390625,100.0,1.524649374598E12,0.0,
431640.2282714844,128.0,0.6242126970544692,54.72517069878229,89.97300884791184,0.390625,100.0,1.524649374598E12,0.0,
431641.2048339844,128.0,0.5607456637317734,54.710746373027135,89.97300884791184,0.390625,100.0,1.524649374598E12,0.0,
431642.1813964844,128.0,0.548484986839889,54.752216309573214,89.97300884791184,0.390625,100.0,1.524649374598E12,0.0,
431643.1579589844,128.0,0.5611062718756523,54.81532273475203,89.97300884791184,0.390625,100.0,1.524649374598E12,0.0,
431644.1345214844,128.0,0.5690396510409893,54.69127353325767,89.97300884791184,0.390625,100.0,1.524649374607E12,0.0,
431645.1110839844,128.0,0.5647123533144419,54.75978908059467,89.97300884791184,0.390625,100.0,1.524649374607E12,0.0,
431646.0876464844,128.0,0.5654335696021998,54.75690421544364,89.97300884791184,0.390625,100.0,1.524649374608E12,0.0,
431647.0642089844,128.0,0.5690396510409893,54.682979545948456,89.97300884791184,0.390625,100.0,1.524649374608E12,0.0,
431648.0407714844,128.0,0.5784154627818421,54.68586441109949,89.97300884791184,0.390625,100.0,1.524649374608E12,0.0,
431649.0173339844,128.0,0.5996913432707004,54.67793103193415,89.97300884791184,0.390625,100.0,1.524649374608E12,0.0,
431649.9938964844,128.0,0.60329742470949,54.700288736854645,89.97300884791184,0.390625,100.0,1.524649374612E12,0.0,
431650.9704589844,128.0,0.6094277631554321,54.74680718741503,89.97300884791184,0.390625,100.0,1.524649374612E12,0.0,
431651.9470214844,128.0,0.611230803874827,54.645836907128924,89.97300884791184,0.390625,100.0,1.524649374613E12,0.0,
431652.9235839844,128.0,0.6721735801903701,54.73923441639357,89.97300884791184,0.390625,100.0,1.524649374613E12,0.0,
431653.9001464844,128.0,0.7392466949518556,54.792604421687656,89.97300884791184,0.390625,100.0,1.524649374613E12,0.0,
431654.8767089844,128.0,0.7727832523325983,54.78467104252232,89.97300884791184,0.390625,100.0,1.524649374613E12,0.0,
431655.8532714844,128.0,0.7879287943755143,54.78899834024887,89.97300884791184,0.390625,100.0,1.524649374619E12,0.0,
431656.8298339844,128.0,0.7778317663469037,54.817486383615304,89.97300884791184,0.390625,100.0,1.524649374619E12,0.0,
431657.8063964844,128.0,0.7702589953254456,54.77745887964474,89.97300884791184,0.390625,100.0,1.524649374619E12,0.0,
431658.7829589844,128.0,0.7154465574558446,54.81820759990306,89.97300884791184,0.390625,100.0,1.524649374619E12,0.0,
431659.7595214844,128.0,0.658109862579091,54.734907118667024,89.97300884791184,0.390625,100.0,1.524649374619E12,0.0,
431660.7360839844,128.0,0.6040186409972479,54.76339516203346,89.97300884791184,0.390625,100.0,1.524649374628E12,0.0,
431661.7126464844,128.0,0.5466819461204941,54.76628002718449,89.97300884791184,0.390625,100.0,1.524649374629E12,0.0,
431662.6892089844,128.0,0.5650729614583209,54.700649344998524,89.97300884791184,0.390625,100.0,1.524649374629E12,0.0,
431663.6657714844,128.0,0.5744487731991736,54.734907118667024,89.97300884791184,0.390625,100.0,1.524649374629E12,0.0,
431664.6423339844,128.0,0.5784154627818421,54.79909536827748,89.97300884791184,0.390625,100.0,1.524649374629E12,0.0,
431665.6188964844,128.0,0.5813003279328738,54.73382529423539,89.97300884791184,0.390625,100.0,1.524649374629E12,0.0,
431666.5954589844,128.0,0.5758912057746894,54.731661645372114,89.97300884791184,0.390625,100.0,1.524649374634E12,0.0,
431667.5720214844,128.0,0.5827427605083896,54.72697373950169,89.97300884791184,0.390625,100.0,1.524649374634E12,0.0,
431668.5485839844,128.0,0.5975276944074267,54.76375577017734,89.97300884791184,0.390625,100.0,1.524649374634E12,0.0,
431669.5251464844,128.0,0.6094277631554321,54.75437995843649,89.97300884791184,0.390625,100.0,1.524649374634E12,0.0,
431670.5017089844,128.0,0.6162793178891323,54.80883178816221,89.97300884791184,0.390625,100.0,1.524649374634E12,0.0,
431671.4782714844,128.0,0.6184429667524061,54.72697373950169,89.97300884791184,0.390625,100.0,1.524649374634E12,0.0,
431672.4548339844,128.0,0.6451279693994486,54.820371248766335,89.97300884791184,0.390625,100.0,1.524649374638E12,0.0,
431673.4313964844,128.0,0.7172495981752394,54.7370707675303,89.97300884791184,0.390625,100.0,1.524649374639E12,0.0,
431674.4079589844,128.0,0.759801359152956,54.82938645236331,89.97300884791184,0.390625,100.0,1.524649374639E12,0.0,
431675.3845214844,128.0,0.7868469699438775,54.84705625141338,89.97300884791184,0.390625,100.0,1.524649374639E12,0.0,
431676.3610839844,128.0,0.7890106188071512,54.76628002718449,89.97300884791184,0.390625,100.0,1.524649374639E12,0.0,
431677.3376464844,128.0,0.7749469011958721,54.741398065256845,89.97300884791184,0.390625,100.0,1.524649374639E12,0.0,
431678.3142089844,128.0,0.7525891962753769,54.820010640622456,89.97300884791184,0.390625,100.0,1.524649374641E12,0.0,
431679.2907714844,128.0,0.6819100000751019,54.72372826620678,89.97300884791184,0.390625,100.0,1.524649374641E12,0.0,
431680.2673339844,128.0,0.6285399947810167,54.77529523078147,89.97300884791184,0.390625,100.0,1.524649374641E12,0.0,
431681.2438964844,128.0,0.5679578266093525,54.743922322264,89.97300884791184,0.390625,100.0,1.524649374641E12,0.0,
431682.2204589844,128.0,0.5629093125950471,54.713991846322045,89.97300884791184,0.390625,100.0,1.524649374642E12,0.0,
431683.1970214844,128.0,0.5776942464940842,54.792965029831535,89.97300884791184,0.390625,100.0,1.524649374642E12,0.0,
431684.1735839844,128.0,0.5849064093716633,54.71687671147308,89.97300884791184,0.390625,100.0,1.52464937465E12,0.0,
431685.1501464844,128.0,0.5784154627818421,54.77168914934268,89.97300884791184,0.390625,100.0,1.52464937465E12,0.0,
431686.1267089844,128.0,0.5816609360767527,54.77168914934268,89.97300884791184,0.390625,100.0,1.52464937465E12,0.0,
431687.1032714844,128.0,0.5834639767961475,54.75329813400485,89.97300884791184,0.390625,100.0,1.52464937465E12,0.0,
431688.0798339844,128.0,0.5964458699757899,54.75942847245079,89.97300884791184,0.390625,100.0,1.524649374651E12,0.0,
431689.0563964844,128.0,0.6097883712993111,54.796210503126446,89.97300884791184,0.390625,100.0,1.524649374665E12,0.0,
431690.0329589844,128.0,0.6224096563350745,54.77313158191819,89.97300884791184,0.390625,100.0,1.524649374665E12,0.0,
431691.0095214844,128.0,0.6234914807667113,54.79512867869481,89.97300884791184,0.390625,100.0,1.524649374665E12,0.0,
431691.9860839844,128.0,0.625655129629985,54.72192522548738,89.97300884791184,0.390625,100.0,1.524649374665E12,0.0,
431692.9626464844,128.0,0.6923676362475916,54.792604421687656,89.97300884791184,0.390625,100.0,1.524649374665E12,0.0,
431693.9392089844,128.0,0.7432133845345241,54.79729232755808,89.97300884791184,0.390625,100.0,1.524649374666E12,0.0,
431694.9157714844,128.0,0.7742256849081142,54.74572536298339,89.97300884791184,0.390625,100.0,1.52464937467E12,0.0,
431695.8923339844,128.0,0.7857651455122406,54.7763770552131,89.97300884791184,0.390625,100.0,1.52464937467E12,0.0,
431696.8688964844,128.0,0.782880280361209,54.690552316969914,89.97300884791184,0.390625,100.0,1.52464937467E12,0.0,
431697.8454589844,128.0,0.7698983871815667,54.686946235531124,89.97300884791184,0.390625,100.0,1.52464937467E12,0.0,
431698.8220214844,128.0,0.7096768271537813,54.6342974465248,89.97300884791184,0.390625,100.0,1.52464937467E12,0.0,
431699.7985839844,128.0,0.6631583765933963,54.673243126063724,89.97300884791184,0.390625,100.0,1.524649374671E12,0.0,
431700.7751464844,128.0,0.6079853305799163,54.673243126063724,89.97300884791184,0.390625,100.0,1.524649374673E12,0.0,
431701.7517089844,128.0,0.5672366103215946,54.682979545948456,89.97300884791184,0.390625,100.0,1.524649374673E12,0.0,
431702.7282714844,128.0,0.5888730989543318,54.72264644177514,89.97300884791184,0.390625,100.0,1.524649374673E12,0.0,
431703.7048339844,128.0,0.6025762084217321,54.77709827150086,89.97300884791184,0.390625,100.0,1.524649374673E12,0.0,
431704.6813964844,128.0,0.6011337758462162,54.676127991214756,89.97300884791184,0.390625,100.0,1.524649374674E12,0.0,
431705.6579589844,128.0,0.6054610735727637,54.679734072653545,89.97300884791184,0.390625,100.0,1.524649374674E12,0.0,
431706.6345214844,128.0,0.594642829256395,54.75041326885382,89.97300884791184,0.390625,100.0,1.524649374675E12,0.0,
431707.6110839844,128.0,0.5932003966808792,54.72589191507005,89.97300884791184,0.390625,100.0,1.524649374675E12,0.0,
431708.5876464844,128.0,0.6105095875870691,54.72192522548738,89.97300884791184,0.390625,100.0,1.524649374676E12,0.0,
431709.5642089844,128.0,0.6162793178891323,54.772049757486556,89.97300884791184,0.390625,100.0,1.524649374677E12,0.0,
431710.5407714844,128.0,0.6195247911840429,54.724449482494535,89.97300884791184,0.390625,100.0,1.524649374677E12,0.0,
431711.5173339844,128.0,0.626376345917743,54.74067684896909,89.97300884791184,0.390625,100.0,1.524649374678E12,0.0,
431712.4938964844,128.0,0.6534219567086645,54.81784699175918,89.97300884791184,0.390625,100.0,1.524649374682E12,0.0,
431713.4704589844,128.0,0.7338375727936712,54.78034374479577,89.97300884791184,0.390625,100.0,1.524649374683E12,0.0,
431714.4470214844,128.0,0.7680953464621719,54.796931719414204,89.97300884791184,0.390625,100.0,1.524649374683E12,0.0,
431715.4235839844,128.0,0.7861257536561196,54.745364754839514,89.97300884791184,0.390625,100.0,1.524649374683E12,0.0,
431716.4001464844,128.0,0.790813659526546,54.74320110597624,89.97300884791184,0.390625,100.0,1.524649374683E12,0.0,
431717.3767089844,128.0,0.7807166314979352,54.758346648019156,89.97300884791184,0.390625,100.0,1.524649374683E12,0.0,
431718.3532714844,128.0,0.7493437229804663,54.7626739457457,89.97300884791184,0.390625,100.0,1.524649374742E12,0.0,
431719.3298339844,128.0,0.6865979059455283,54.77421340634983,89.97300884791184,0.390625,100.0,1.524649374743E12,0.0,
431720.3063964844,128.0,0.634670333226959,54.72949799650884,89.97300884791184,0.390625,100.0,1.524649374743E12,0.0,
431721.2829589844,128.0,0.5784154627818421,54.77781948778862,89.97300884791184,0.390625,100.0,1.524649374743E12,0.0,
431722.2595214844,128.0,0.5773336383502052,54.76411637832122,89.97300884791184,0.390625,100.0,1.524649374743E12,0.0,
431723.2360839844,128.0,0.5870700582349371,54.711106981171014,89.97300884791184,0.390625,100.0,1.524649374755E12,0.0,
431724.2126464844,128.0,0.5924791803931213,54.81568334289591,89.97300884791184,0.390625,100.0,1.524649374755E12,0.0,
431725.1892089844,128.0,0.5903155315298476,54.7370707675303,89.97300884791184,0.390625,100.0,1.524649374755E12,0.0,
431726.1657714844,128.0,0.5939216129686371,54.76844367604777,89.97300884791184,0.390625,100.0,1.524649374755E12,0.0,
431727.1423339844,128.0,0.5932003966808792,54.741758673400724,89.97300884791184,0.390625,100.0,1.524649374755E12,0.0,
431728.1188964844,128.0,0.6000519514145793,54.700649344998524,89.97300884791184,0.390625,100.0,1.524649374756E12,0.0,
431729.0954589844,128.0,0.618803574896285,54.751855701429335,89.97300884791184,0.390625,100.0,1.524649374756E12,0.0,
431730.0720214844,128.0,0.6159187097452533,54.7078615078761,89.97300884791184,0.390625,100.0,1.524649374757E12,0.0,
431731.0485839844,128.0,0.6177217504646481,54.755101174724246,89.97300884791184,0.390625,100.0,1.524649374758E12,0.0,
431732.0251464844,128.0,0.6260157377738641,54.79116198911214,89.97300884791184,0.390625,100.0,1.524649374758E12,0.0,
431733.0017089844,128.0,0.6905645955281968,54.73346468609151,89.97300884791184,0.390625,100.0,1.524649374758E12,0.0,
431733.9782714844,128.0,0.7406891275273714,54.817486383615304,89.97300884791184,0.390625,100.0,1.524649374758E12,0.0,
431734.9548339844,128.0,0.7738650767642352,54.76772245976001,89.97300884791184,0.390625,100.0,1.52464937476E12,0.0,
431735.9313964844,128.0,0.7821590640734511,54.7284161720772,89.97300884791184,0.390625,100.0,1.52464937476E12,0.0,
431736.9079589844,128.0,0.7720620360448404,54.81424091032039,89.97300884791184,0.390625,100.0,1.52464937476E12,0.0,
431737.8845214844,128.0,0.759801359152956,54.782868001802925,89.97300884791184,0.390625,100.0,1.52464937476E12,0.0,
431738.8610839844,128.0,0.6948918932547442,54.74247988968848,89.97300884791184,0.390625,100.0,1.524649374761E12,0.0,
431739.8376464844,128.0,0.6508976997015119,54.713631238178166,89.97300884791184,0.390625,100.0,1.524649374761E12,0.0,
431740.8142089844,128.0,0.5986095188390635,54.70822211601998,89.97300884791184,0.390625,100.0,1.524649374762E12,0.0,
431741.7907714844,128.0,0.5600244474440155,54.77998313665189,89.97300884791184,0.390625,100.0,1.524649374763E12,0.0,
431742.7673339844,128.0,0.5769730302063263,54.67901285636579,89.97300884791184,0.390625,100.0,1.524649374763E12,0.0,
431743.7438964844,128.0,0.5820215442206317,54.7763770552131,89.97300884791184,0.390625,100.0,1.524649374763E12,0.0,
431744.7204589844,128.0,0.5852670175155422,54.710385764883256,89.97300884791184,0.390625,100.0,1.524649374763E12,0.0,
431745.6970214844,128.0,0.5895943152420897,54.72625252321393,89.97300884791184,0.390625,100.0,1.524649374763E12,0.0,
431746.6735839844,128.0,0.5784154627818421,54.724449482494535,89.97300884791184,0.390625,100.0,1.524649374765E12,0.0,
431747.6501464844,128.0,0.5903155315298476,54.60833366016551,89.97300884791184,0.390625,100.0,1.524649374765E12,0.0,
431748.6267089844,128.0,0.6069035061482795,54.64331265012177,89.97300884791184,0.390625,100.0,1.524649374766E12,0.0,
431749.6032714844,128.0,0.6061822898605216,54.70317360200568,89.97300884791184,0.390625,100.0,1.524649374766E12,0.0,
431750.5798339844,128.0,0.611230803874827,54.717597927760835,89.97300884791184,0.390625,100.0,1.524649374766E12,0.0,
431751.5563964844,128.0,0.6133944527381007,54.73995563268133,89.97300884791184,0.390625,100.0,1.524649374767E12,0.0,
431752.5329589844,128.0,0.6472916182627223,54.72589191507005,89.97300884791184,0.390625,100.0,1.524649374767E12,0.0,
431753.5095214844,128.0,0.7075131782905076,54.71615549518532,89.97300884791184,0.390625,100.0,1.524649374768E12,0.0,
431754.4860839844,128.0,0.7417709519590082,54.79512867869481,89.97300884791184,0.390625,100.0,1.524649374768E12,0.0,
431755.4626464844,128.0,0.7688165627499298,54.66819461204942,89.97300884791184,0.390625,100.0,1.524649374768E12,0.0,
431756.4392089844,128.0,0.7680953464621719,54.738513200105814,89.97300884791184,0.390625,100.0,1.524649374768E12,0.0,
431757.4157714844,128.0,0.7554740614264085,54.744643538551756,89.97300884791184,0.390625,100.0,1.52464937477E12,0.0,
431758.3923339844,128.0,0.7219375040456658,54.73995563268133,89.97300884791184,0.390625,100.0,1.52464937477E12,0.0,
431759.3688964844,128.0,0.6627977684495173,54.75942847245079,89.97300884791184,0.390625,100.0,1.52464937477E12,0.0,
431760.3454589844,128.0,0.6173611423207691,54.74356171412012,89.97300884791184,0.390625,100.0,1.52464937477E12,0.0,
431761.3220214844,128.0,0.5603850555878944,54.79476807055093,89.97300884791184,0.390625,100.0,1.52464937477E12,0.0,
431762.2985839844,128.0,0.5661547858899577,54.77709827150086,89.97300884791184,0.390625,100.0,1.52464937477E12,0.0,
431763.2751464844,128.0,0.5762518139185684,54.697043263559735,89.97300884791184,0.390625,100.0,1.524649374776E12,0.0,
431764.2517089844,128.0,0.5813003279328738,54.78358921809068,89.97300884791184,0.390625,100.0,1.524649374776E12,0.0,
431765.2282714844,128.0,0.5834639767961475,54.78070435293965,89.97300884791184,0.390625,100.0,1.524649374776E12,0.0,
431766.2048339844,128.0,0.5834639767961475,54.74247988968848,89.97300884791184,0.390625,100.0,1.524649374776E12,0.0,
431767.1813964844,128.0,0.5863488419471791,54.73274346980375,89.97300884791184,0.390625,100.0,1.524649374777E12,0.0,
431768.1579589844,128.0,0.5939216129686371,54.73923441639357,89.97300884791184,0.390625,100.0,1.524649374777E12,0.0,
431769.1345214844,128.0,0.6090671550115532,54.76628002718449,89.97300884791184,0.390625,100.0,1.524649374777E12,0.0,
431770.1110839844,128.0,0.6090671550115532,54.728055563933324,89.97300884791184,0.390625,100.0,1.524649374777E12,0.0,
431771.0876464844,128.0,0.6123126283064638,54.71218880560265,89.97300884791184,0.390625,100.0,1.524649374777E12,0.0,
431772.0642089844,128.0,0.619164183040164,54.7370707675303,89.97300884791184,0.390625,100.0,1.524649374777E12,0.0,
431773.0407714844,128.0,0.6829918245067388,54.78683469138559,89.97300884791184,0.390625,100.0,1.524649374777E12,0.0,
431774.0173339844,128.0,0.7309527076426396,54.76087090502631,89.97300884791184,0.390625,100.0,1.524649374778E12,0.0,
431774.9938964844,128.0,0.767374130174414,54.779622528508014,89.97300884791184,0.390625,100.0,1.524649374778E12,0.0,
431775.9704589844,128.0,0.7767499419152668,54.77781948778862,89.97300884791184,0.390625,100.0,1.524649374778E12,0.0,
431776.9470214844,128.0,0.7637680487356244,54.745004146695635,89.97300884791184,0.390625,100.0,1.524649374778E12,0.0,
431777.9235839844,128.0,0.7479012904049505,54.81099543702548,89.97300884791184,0.390625,100.0,1.524649374778E12,0.0,
431778.9001464844,128.0,0.6873191222332862,54.717597927760835,89.97300884791184,0.390625,100.0,1.524649374778E12,0.0,
431779.8767089844,128.0,0.642603712392296,54.758346648019156,89.97300884791184,0.390625,100.0,1.524649374778E12,0.0,
431780.8532714844,128.0,0.5899549233859687,54.70245238571792,89.97300884791184,0.390625,100.0,1.524649374779E12,0.0,
431781.8298339844,128.0,0.5694002591848683,54.75113448514158,89.97300884791184,0.390625,100.0,1.524649374779E12,0.0,
431782.8063964844,128.0,0.5928397885370003,54.741398065256845,89.97300884791184,0.390625,100.0,1.524649374779E12,0.0,
431783.7829589844,128.0,0.6184429667524061,54.796571111270325,89.97300884791184,0.390625,100.0,1.524649374779E12,0.0,
431784.7595214844,128.0,0.6220490481911956,54.76051029688243,89.97300884791184,0.390625,100.0,1.524649374779E12,0.0,
431785.7360839844,128.0,0.6400794553851432,54.74356171412012,89.97300884791184,0.390625,100.0,1.524649374779E12,0.0,
431786.7126464844,128.0,0.6440461449678118,54.79476807055093,89.97300884791184,0.390625,100.0,1.524649374779E12,0.0,
431787.6892089844,128.0,0.6552249974280593,54.7832286099468,89.97300884791184,0.390625,100.0,1.52464937478E12,0.0,
431788.6657714844,128.0,0.6779433104924334,54.79548928683869,89.97300884791184,0.390625,100.0,1.52464937478E12,0.0,
431789.6423339844,128.0,0.6880403385210442,54.76700124347225,89.97300884791184,0.390625,100.0,1.52464937478E12,0.0,
431790.6188964844,128.0,0.7035464887078392,54.755461782868124,89.97300884791184,0.390625,100.0,1.52464937478E12,0.0,
431791.5954589844,128.0,0.720855679614029,54.76051029688243,89.97300884791184,0.390625,100.0,1.52464937478E12,0.0,
431792.5720214844,128.0,0.7637680487356244,54.7644769864651,89.97300884791184,0.390625,100.0,1.52464937478E12,0.0,
431793.5485839844,128.0,0.8315623797848678,54.81784699175918,89.97300884791184,0.390625,100.0,1.52464937478E12,0.0,
431794.5251464844,128.0,0.8647383290217315,54.792604421687656,89.97300884791184,0.390625,100.0,1.524649374781E12,0.0,
431795.5017089844,128.0,0.8816869117840423,54.73238286165987,89.97300884791184,0.390625,100.0,1.524649374781E12,0.0,
431796.4782714844,128.0,0.9015203596973849,54.697043263559735,89.97300884791184,0.390625,100.0,1.524649374781E12,0.0,
431797.4548339844,128.0,0.8892596828055004,54.66458853061063,89.97300884791184,0.390625,100.0,1.524649374781E12,0.0,
431798.4313964844,128.0,0.8658201534533684,54.655933935157535,89.97300884791184,0.390625,100.0,1.524649374781E12,0.0,
431799.4079589844,128.0,0.8214653517562571,54.676488599358635,89.97300884791184,0.390625,100.0,1.524649374781E12,0.0,
431800.3845214844,128.0,0.7738650767642352,54.75654360729976,89.97300884791184,0.390625,100.0,1.524649374781E12,0.0,
431801.3610839844,128.0,0.7168889900313604,54.728055563933324,89.97300884791184,0.390625,100.0,1.524649374782E12,0.0,
431802.3376464844,128.0,0.7259041936283342,54.73382529423539,89.97300884791184,0.390625,100.0,1.524649374782E12,0.0,
431803.3142089844,128.0,0.7381648705202187,54.73598894309866,89.97300884791184,0.390625,100.0,1.524649374782E12,0.0,
431804.2907714844,128.0,0.7482618985488294,54.73598894309866,89.97300884791184,0.390625,100.0,1.524649374782E12,0.0,
431805.2673339844,128.0,0.7554740614264085,54.7165161033292,89.97300884791184,0.390625,100.0,1.524649374783E12,0.0,
431806.2438964844,128.0,0.7493437229804663,54.72733434764557,89.97300884791184,0.390625,100.0,1.524649374783E12,0.0,
431807.2204589844,128.0,0.7561952777141664,54.78142556922741,89.97300884791184,0.390625,100.0,1.524649374783E12,0.0,
431808.1970214844,128.0,0.7644892650233823,54.737791983818056,89.97300884791184,0.390625,100.0,1.524649374783E12,0.0,
431809.1735839844,128.0,0.7789135907785405,54.81965003247858,89.97300884791184,0.390625,100.0,1.524649374783E12,0.0,
431810.1501464844,128.0,0.7785529826346616,54.76772245976001,89.97300884791184,0.390625,100.0,1.524649374783E12,0.0,
431811.1267089844,128.0,0.7864863617999985,54.74067684896909,89.97300884791184,0.390625,100.0,1.524649374783E12,0.0,
431812.1032714844,128.0,0.8030743364184304,54.78863773210499,89.97300884791184,0.390625,100.0,1.524649374784E12,0.0,
431813.0798339844,128.0,0.8676231941727632,54.7010099531424,89.97300884791184,0.390625,100.0,1.524649374784E12,0.0,
431814.0563964844,128.0,0.9058476574239324,54.81135604516936,89.97300884791184,0.390625,100.0,1.524649374787E12,0.0,
431815.0329589844,128.0,0.9429902962434645,54.77457401449371,89.97300884791184,0.390625,100.0,1.524649374787E12,0.0,
431816.0095214844,128.0,0.9494812428332857,54.761952729457946,89.97300884791184,0.390625,100.0,1.524649374788E12,0.0,
431816.9860839844,128.0,0.9339750926464907,54.74933144442218,89.97300884791184,0.390625,100.0,1.524649374788E12,0.0,
431817.9626464844,128.0,0.9191901587474536,54.776016447069225,89.97300884791184,0.390625,100.0,1.524649374788E12,0.0,
431818.9392089844,128.0,0.8586079905757893,54.78358921809068,89.97300884791184,0.390625,100.0,1.524649374788E12,0.0,
431819.9157714844,128.0,0.8196623110368623,54.71146758931489,89.97300884791184,0.390625,100.0,1.52464937479E12,0.0,
431820.8923339844,128.0,0.7644892650233823,54.721204009199624,89.97300884791184,0.390625,100.0,1.52464937479E12,0.0,
431821.8688964844,128.0,0.7291496669232449,54.7626739457457,89.97300884791184,0.390625,100.0,1.52464937479E12,0.0,
